Freq Spl Phase
20.5078 57.819 0.0
21.9727 59.823 0.0
23.4375 61.839 0.0
24.9023 63.108 0.0
26.3672 64.897 0.0
27.832 66.84 0.0
29.2969 68.694 0.0
30.7617 70.421 0.0
32.2266 72.14 0.0
33.6914 73.872 0.0
35.1562 75.485 0.0
36.6211 76.693 0.0
38.0859 77.992 0.0
39.5508 79.164 0.0
41.0156 80.239 0.0
42.4805 81.212 0.0
43.9453 82.046 0.0
45.4102 82.714 0.0
46.875 83.14 0.0
48.3398 83.512 0.0
51.2695 83.935 0.0
52.7344 84.049 0.0
54.1992 84.132 0.0
55.6641 84.204 0.0
58.5938 84.33 0.0
60.0586 84.398 0.0
62.9883 84.509 0.0
64.4531 84.554 0.0
67.3828 84.655 0.0
68.8477 84.725 0.0
71.7773 84.898 0.0
74.707 85.096 0.0
77.6367 85.287 0.0
79.1016 85.394 0.0
82.0312 85.611 0.0
84.9609 85.823 0.0
87.8906 86.009 0.0
90.8203 86.199 0.0
95.2148 86.45 0.0
98.1445 86.585 0.0
101.074 86.716 0.0
105.469 86.871 0.0
108.398 86.944 0.0
112.793 87.031 0.0
117.188 87.085 0.0
120.117 87.109 0.0
124.512 87.144 0.0
125.0 84.2889 0.0
128.0 84.3083 0.0
132.0 84.3348 0.0
136.0 84.3631 0.0
140.0 84.3948 0.0
145.0 84.4416 0.0
150.0 84.4976 0.0
155.0 84.5644 0.0
160.0 84.6429 0.0
165.0 84.7337 0.0
170.0 84.83760000000001 0.0
175.0 84.9547 0.0
180.0 85.08330000000001 0.0
185.0 85.2207 0.0
190.0 85.3653 0.0
195.0 85.51490000000001 0.0
200.0 85.6675 0.0
206.0 85.8514 0.0
212.0 86.0321 0.0
218.0 86.206 0.0
224.0 86.37 0.0
230.0 86.5211 0.0
236.0 86.65690000000001 0.0
243.0 86.79390000000001 0.0
250.0 86.9063 0.0
258.0 87.0029 0.0
265.0 87.0577 0.0
272.0 87.0844 0.0
280.0 87.0816 0.0
290.0 87.03190000000001 0.0
300.0 86.9367 0.0
307.0 86.8449 0.0
315.0 86.7159 0.0
325.0 86.529 0.0
335.0 86.3224 0.0
345.0 86.105 0.0
355.0 85.8871 0.0
365.0 85.6782 0.0
375.0 85.4873 0.0
387.0 85.2908 0.0
400.0 85.1229 0.0
412.0 85.0094 0.0
425.0 84.9253 0.0
437.0 84.8735 0.0
450.0 84.8327 0.0
462.0 84.7967 0.0
475.0 84.7481 0.0
487.0 84.6856 0.0
500.0 84.5923 0.0
515.0 84.4497 0.0
530.0 84.2722 0.0
545.0 84.0676 0.0
560.0 83.84989999999999 0.0
580.0 83.5684 0.0
600.0 83.3301 0.0
615.0 83.1954 0.0
630.0 83.10390000000001 0.0
650.0 83.03110000000001 0.0
670.0 82.9796 0.0
690.0 82.9057 0.0
710.0 82.7664 0.0
730.0 82.5321 0.0
750.0 82.18860000000001 0.0
775.0 81.62960000000001 0.0
800.0 80.9927 0.0
825.0 80.3697 0.0
850.0 79.8512 0.0
875.0 79.4816 0.0
900.0 79.2416 0.0
925.0 79.05760000000001 0.0
950.0 78.832 0.0
975.0 78.4819 0.0
1000.0 77.9682 0.0
1030.0 77.1896 0.0
1060.0 76.40950000000001 0.0
1090.0 75.8672 0.0
1120.0 75.726 0.0
1150.0 75.93520000000001 0.0
1180.0 76.24080000000001 0.0
1220.0 76.3872 0.0
1250.0 76.13210000000001 0.0
1280.0 75.60810000000001 0.0
1320.0 74.8825 0.0
1360.0 74.5754 0.0
1400.0 74.69669999999999 0.0
1450.0 74.71090000000001 0.0
1500.0 73.6323 0.0
1550.0 71.2354 0.0
1600.0 67.958 0.0
1650.0 64.7461 0.0
1700.0 62.9801 0.0
1750.0 63.02 0.0
1800.0 64.14699999999999 0.0
1850.0 65.93010000000001 0.0
1900.0 68.2702 0.0
1950.0 70.873 0.0
2000.0 73.224 0.0
2060.0 75.1636 0.0
2120.0 76.2256 0.0
2180.0 77.0281 0.0
2240.0 77.91640000000001 0.0
2300.0 78.6095 0.0
2360.0 78.79939999999999 0.0
2430.0 78.73949999999999 0.0
2500.0 79.0293 0.0
2580.0 79.587 0.0
2650.0 79.7732 0.0
2720.0 79.9787 0.0
2800.0 80.3527 0.0
2900.0 80.1885 0.0
3000.0 79.611 0.0
3070.0 79.30600000000001 0.0
3150.0 79.0344 0.0
3250.0 78.8534 0.0
3350.0 78.72 0.0
3450.0 78.4863 0.0
3550.0 78.5145 0.0
3650.0 78.7039 0.0
3750.0 78.7372 0.0
3870.0 78.3233 0.0
4000.0 77.7211 0.0
4120.0 77.5317 0.0
4250.0 77.87389999999999 0.0
4370.0 78.1429 0.0
4500.0 78.2257 0.0
4620.0 78.2564 0.0
4750.0 78.2054 0.0
4870.0 78.0968 0.0
5000.0 78.084 0.0
5150.0 78.2584 0.0
5300.0 78.5281 0.0
5450.0 78.7343 0.0
5600.0 78.6093 0.0
5800.0 77.7942 0.0
6000.0 76.5519 0.0
6150.0 75.9527 0.0
6300.0 75.7527 0.0
6500.0 75.4795 0.0
6700.0 74.855 0.0
6900.0 74.3315 0.0
7100.0 74.0605 0.0
7300.0 73.7676 0.0
7500.0 73.1454 0.0
7750.0 71.9713 0.0
8000.0 71.0814 0.0
8250.0 70.35640000000001 0.0
8500.0 69.3862 0.0
8750.0 69.2808 0.0
9000.0 69.67609999999999 0.0
9250.0 69.2377 0.0
9500.0 68.273 0.0
9750.0 67.3356 0.0
10000.0 66.36160000000001 0.0
10300.0 65.4696 0.0
10600.0 65.26400000000001 0.0
10900.0 64.749 0.0
11200.0 64.00319999999999 0.0
11500.0 63.7045 0.0
11800.0 63.4567 0.0
12200.0 62.4382 0.0
12500.0 61.9418 0.0
12800.0 61.2262 0.0
13200.0 59.7321 0.0
13600.0 56.848 0.0
14000.0 54.2336 0.0
14500.0 57.2723 0.0
15000.0 59.5492 0.0
15500.0 60.1423 0.0
16000.0 61.7673 0.0
16500.0 63.1753 0.0
17000.0 64.2508 0.0
17500.0 64.97460000000001 0.0
18000.0 65.1209 0.0
18500.0 64.0435 0.0
19000.0 61.84 0.0
19500.0 59.0247 0.0
