Freq Spl Phase
20.5078 57.819 0.0
21.9727 59.823 0.0
23.4375 61.839 0.0
24.9023 63.108 0.0
26.3672 64.897 0.0
27.832 66.84 0.0
29.2969 68.694 0.0
30.7617 70.421 0.0
32.2266 72.14 0.0
33.6914 73.872 0.0
35.1562 75.485 0.0
36.6211 76.693 0.0
38.0859 77.992 0.0
39.5508 79.164 0.0
41.0156 80.239 0.0
42.4805 81.212 0.0
43.9453 82.046 0.0
45.4102 82.714 0.0
46.875 83.14 0.0
48.3398 83.512 0.0
51.2695 83.935 0.0
52.7344 84.049 0.0
54.1992 84.132 0.0
55.6641 84.204 0.0
58.5938 84.33 0.0
60.0586 84.398 0.0
62.9883 84.509 0.0
64.4531 84.554 0.0
67.3828 84.655 0.0
68.8477 84.725 0.0
71.7773 84.898 0.0
74.707 85.096 0.0
77.6367 85.287 0.0
79.1016 85.394 0.0
82.0312 85.611 0.0
84.9609 85.823 0.0
87.8906 86.009 0.0
90.8203 86.199 0.0
95.2148 86.45 0.0
98.1445 86.585 0.0
101.074 86.716 0.0
105.469 86.871 0.0
108.398 86.944 0.0
112.793 87.031 0.0
117.188 87.085 0.0
120.117 87.109 0.0
124.512 87.144 0.0
128.906 87.141 0.0
133.301 87.063 0.0
139.16 86.906 0.0
143.555 86.835 0.0
147.949 86.791 0.0
300.0 80.9216 0.0
307.0 80.8629 0.0
315.0 80.78359999999999 0.0
325.0 80.67179999999999 0.0
335.0 80.55109999999999 0.0
345.0 80.4266 0.0
355.0 80.3041 0.0
365.0 80.1886 0.0
375.0 80.0851 0.0
387.0 79.9815 0.0
400.0 79.89789999999999 0.0
412.0 79.84819999999999 0.0
425.0 79.8222 0.0
437.0 79.81909999999999 0.0
450.0 79.83179999999999 0.0
462.0 79.85079999999999 0.0
475.0 79.8716 0.0
487.0 79.8838 0.0
500.0 79.8835 0.0
515.0 79.8608 0.0
530.0 79.81209999999999 0.0
545.0 79.7382 0.0
560.0 79.6431 0.0
580.0 79.49719999999999 0.0
600.0 79.3469 0.0
615.0 79.2404 0.0
630.0 79.14429999999999 0.0
650.0 79.0311 0.0
670.0 78.9246 0.0
690.0 78.8059 0.0
710.0 78.65039999999999 0.0
730.0 78.4344 0.0
750.0 78.13589999999999 0.0
775.0 77.63829999999999 0.0
800.0 77.0118 0.0
825.0 76.2862 0.0
850.0 75.5175 0.0
875.0 74.7752 0.0
900.0 74.1237 0.0
925.0 73.5985 0.0
950.0 73.1885 0.0
975.0 72.8442 0.0
1000.0 72.5104 0.0
1030.0 72.0985 0.0
1060.0 71.7327 0.0
1090.0 71.53049999999999 0.0
1120.0 71.5683 0.0
1150.0 71.79669999999999 0.0
1180.0 72.0508 0.0
1220.0 72.1842 0.0
1250.0 72.03819999999999 0.0
1280.0 71.7285 0.0
1320.0 71.3283 0.0
1360.0 71.1884 0.0
1400.0 71.2101 0.0
1450.0 70.9105 0.0
1500.0 69.66329999999999 0.0
1550.0 67.53469999999999 0.0
1600.0 65.4982 0.0
1650.0 64.31819999999999 0.0
1700.0 63.386199999999995 0.0
1750.0 62.1712 0.0
1800.0 61.299699999999994 0.0
1850.0 61.197199999999995 0.0
1900.0 61.911699999999996 0.0
1950.0 63.81679999999999 0.0
2000.0 66.6398 0.0
2060.0 69.7415 0.0
2120.0 71.7456 0.0
2180.0 73.20339999999999 0.0
2240.0 74.5307 0.0
2300.0 75.5463 0.0
2360.0 76.1115 0.0
2430.0 76.5547 0.0
2500.0 77.0378 0.0
2580.0 77.3497 0.0
2650.0 77.4179 0.0
2720.0 77.61959999999999 0.0
2800.0 77.9011 0.0
2900.0 77.9108 0.0
3000.0 78.0377 0.0
3070.0 78.097 0.0
3150.0 78.0394 0.0
3250.0 78.0054 0.0
3350.0 78.0272 0.0
3450.0 77.8726 0.0
3550.0 77.5311 0.0
3650.0 77.0422 0.0
3750.0 76.50479999999999 0.0
3870.0 75.9307 0.0
4000.0 75.38749999999999 0.0
4120.0 74.9916 0.0
4250.0 75.074 0.0
4370.0 75.49719999999999 0.0
4500.0 75.955 0.0
4620.0 76.1038 0.0
4750.0 75.96449999999999 0.0
4870.0 75.8856 0.0
5000.0 75.8691 0.0
5150.0 75.7406 0.0
5300.0 75.4019 0.0
5450.0 75.18109999999999 0.0
5600.0 75.0101 0.0
5800.0 74.51259999999999 0.0
6000.0 73.7416 0.0
6150.0 73.5461 0.0
6300.0 73.6656 0.0
6500.0 73.7131 0.0
6700.0 73.41579999999999 0.0
6900.0 72.9416 0.0
7100.0 72.5346 0.0
7300.0 72.315 0.0
7500.0 72.0583 0.0
7750.0 71.50919999999999 0.0
8000.0 70.994 0.0
8250.0 70.53399999999999 0.0
8500.0 70.0479 0.0
8750.0 69.7451 0.0
9000.0 69.4584 0.0
9250.0 68.62729999999999 0.0
9500.0 67.40719999999999 0.0
9750.0 66.2243 0.0
10000.0 64.9617 0.0
10300.0 63.929899999999996 0.0
10600.0 64.0233 0.0
10900.0 63.754 0.0
11200.0 62.8003 0.0
11500.0 62.3249 0.0
11800.0 62.193599999999996 0.0
12200.0 61.661899999999996 0.0
12500.0 60.913 0.0
12800.0 59.130599999999994 0.0
13200.0 55.252599999999994 0.0
13600.0 52.5306 0.0
14000.0 53.491699999999994 0.0
14500.0 58.119 0.0
15000.0 60.511199999999995 0.0
15500.0 61.093199999999996 0.0
16000.0 62.0813 0.0
16500.0 63.2469 0.0
17000.0 64.2878 0.0
17500.0 64.8282 0.0
18000.0 64.7421 0.0
18500.0 63.43579999999999 0.0
19000.0 61.1132 0.0
19500.0 58.730399999999996 0.0
