Freq Spl Phase
20.5078 57.819 0.0
21.9727 59.823 0.0
23.4375 61.839 0.0
24.9023 63.108 0.0
26.3672 64.897 0.0
27.832 66.84 0.0
29.2969 68.694 0.0
30.7617 70.421 0.0
32.2266 72.14 0.0
33.6914 73.872 0.0
35.1562 75.485 0.0
36.6211 76.693 0.0
38.0859 77.992 0.0
39.5508 79.164 0.0
41.0156 80.239 0.0
42.4805 81.212 0.0
43.9453 82.046 0.0
45.4102 82.714 0.0
46.875 83.14 0.0
48.3398 83.512 0.0
51.2695 83.935 0.0
52.7344 84.049 0.0
54.1992 84.132 0.0
55.6641 84.204 0.0
58.5938 84.33 0.0
60.0586 84.398 0.0
62.9883 84.509 0.0
64.4531 84.554 0.0
67.3828 84.655 0.0
68.8477 84.725 0.0
71.7773 84.898 0.0
74.707 85.096 0.0
77.6367 85.287 0.0
79.1016 85.394 0.0
82.0312 85.611 0.0
84.9609 85.823 0.0
87.8906 86.009 0.0
90.8203 86.199 0.0
95.2148 86.45 0.0
98.1445 86.585 0.0
101.074 86.716 0.0
105.469 86.871 0.0
108.398 86.944 0.0
112.793 87.031 0.0
117.188 87.085 0.0
120.117 87.109 0.0
124.512 87.144 0.0
125.0 87.9199 0.0
128.0 88.1369 0.0
132.0 88.4144 0.0
136.0 88.6791 0.0
140.0 88.931 0.0
145.0 89.228 0.0
150.0 89.5064 0.0
155.0 89.767 0.0
160.0 90.01050000000001 0.0
165.0 90.2375 0.0
170.0 90.4481 0.0
175.0 90.6424 0.0
180.0 90.8215 0.0
185.0 90.9863 0.0
190.0 91.1374 0.0
195.0 91.2756 0.0
200.0 91.40090000000001 0.0
206.0 91.535 0.0
212.0 91.6528 0.0
218.0 91.7553 0.0
224.0 91.8436 0.0
230.0 91.9187 0.0
236.0 91.9816 0.0
243.0 92.0413 0.0
250.0 92.0882 0.0
258.0 92.1282 0.0
265.0 92.1531 0.0
272.0 92.17 0.0
280.0 92.1823 0.0
290.0 92.1905 0.0
300.0 92.1947 0.0
307.0 92.1971 0.0
315.0 92.2011 0.0
325.0 92.2099 0.0
335.0 92.2248 0.0
345.0 92.2475 0.0
355.0 92.27850000000001 0.0
365.0 92.3178 0.0
375.0 92.3647 0.0
387.0 92.4292 0.0
400.0 92.5055 0.0
412.0 92.5779 0.0
425.0 92.6543 0.0
437.0 92.7192 0.0
450.0 92.7804 0.0
462.0 92.8264 0.0
475.0 92.864 0.0
487.0 92.8877 0.0
500.0 92.903 0.0
515.0 92.9113 0.0
530.0 92.91460000000001 0.0
545.0 92.9187 0.0
560.0 92.9299 0.0
580.0 92.9615 0.0
600.0 93.0153 0.0
615.0 93.0689 0.0
630.0 93.1302 0.0
650.0 93.21170000000001 0.0
670.0 93.277 0.0
690.0 93.3095 0.0
710.0 93.295 0.0
730.0 93.2251 0.0
750.0 93.095 0.0
775.0 92.8559 0.0
800.0 92.55 0.0
825.0 92.202 0.0
850.0 91.845 0.0
875.0 91.512 0.0
900.0 91.2288 0.0
925.0 91.0074 0.0
950.0 90.8464 0.0
975.0 90.7368 0.0
1000.0 90.673 0.0
1030.0 90.65820000000001 0.0
1060.0 90.7228 0.0
1090.0 90.8758 0.0
1120.0 91.1036 0.0
1150.0 91.3694 0.0
1180.0 91.6266 0.0
1220.0 91.9094 0.0
1250.0 92.0684 0.0
1280.0 92.1938 0.0
1320.0 92.3448 0.0
1360.0 92.4975 0.0
1400.0 92.6463 0.0
1450.0 92.8279 0.0
1500.0 93.0661 0.0
1550.0 93.43730000000001 0.0
1600.0 93.9104 0.0
1650.0 94.3505 0.0
1700.0 94.6583 0.0
1750.0 94.8566 0.0
1800.0 95.0277 0.0
1850.0 95.1955 0.0
1900.0 95.30590000000001 0.0
1950.0 95.3234 0.0
2000.0 95.3065 0.0
2060.0 95.3537 0.0
2120.0 95.4681 0.0
2180.0 95.536 0.0
2240.0 95.5483 0.0
2300.0 95.6041 0.0
2360.0 95.708 0.0
2430.0 95.7858 0.0
2500.0 95.8336 0.0
2580.0 95.9424 0.0
2650.0 95.9897 0.0
2720.0 95.9832 0.0
2800.0 95.979 0.0
2900.0 95.8865 0.0
3000.0 95.7342 0.0
3070.0 95.741 0.0
3150.0 95.7739 0.0
3250.0 95.7568 0.0
3350.0 95.7198 0.0
3450.0 95.5711 0.0
3550.0 95.4432 0.0
3650.0 95.359 0.0
3750.0 95.3355 0.0
3870.0 95.4139 0.0
4000.0 95.4458 0.0
4120.0 95.3946 0.0
4250.0 95.3319 0.0
4370.0 95.3668 0.0
4500.0 95.5074 0.0
4620.0 95.7184 0.0
4750.0 95.9896 0.0
4870.0 96.2847 0.0
5000.0 96.5774 0.0
5150.0 96.7899 0.0
5300.0 96.6852 0.0
5450.0 96.1999 0.0
5600.0 95.6855 0.0
5800.0 95.6803 0.0
6000.0 96.1048 0.0
6150.0 96.2747 0.0
6300.0 96.3004 0.0
6500.0 96.3135 0.0
6700.0 96.3648 0.0
6900.0 96.3848 0.0
7100.0 96.2593 0.0
7300.0 95.9854 0.0
7500.0 95.6212 0.0
7750.0 95.2047 0.0
8000.0 94.9736 0.0
8250.0 94.7834 0.0
8500.0 94.6306 0.0
8750.0 94.6931 0.0
9000.0 94.7828 0.0
9250.0 94.6747 0.0
9500.0 94.662 0.0
9750.0 94.8406 0.0
10000.0 94.84270000000001 0.0
10300.0 94.5838 0.0
10600.0 94.4781 0.0
10900.0 94.4514 0.0
11200.0 94.4153 0.0
11500.0 94.4993 0.0
11800.0 94.5933 0.0
12200.0 94.4491 0.0
12500.0 94.3674 0.0
12800.0 94.3465 0.0
13200.0 94.3823 0.0
13600.0 94.6116 0.0
14000.0 94.614 0.0
14500.0 93.5759 0.0
15000.0 91.8738 0.0
15500.0 90.4205 0.0
16000.0 89.6161 0.0
16500.0 89.2253 0.0
17000.0 89.7938 0.0
17500.0 91.6598 0.0
18000.0 93.5188 0.0
18500.0 94.2609 0.0
19000.0 94.3842 0.0
19500.0 94.7039 0.0
