Freq Spl Phase
20.5078 57.819 0.0
21.9727 59.823 0.0
23.4375 61.839 0.0
24.9023 63.108 0.0
26.3672 64.897 0.0
27.832 66.84 0.0
29.2969 68.694 0.0
30.7617 70.421 0.0
32.2266 72.14 0.0
33.6914 73.872 0.0
35.1562 75.485 0.0
36.6211 76.693 0.0
38.0859 77.992 0.0
39.5508 79.164 0.0
41.0156 80.239 0.0
42.4805 81.212 0.0
43.9453 82.046 0.0
45.4102 82.714 0.0
46.875 83.14 0.0
48.3398 83.512 0.0
51.2695 83.935 0.0
52.7344 84.049 0.0
54.1992 84.132 0.0
55.6641 84.204 0.0
58.5938 84.33 0.0
60.0586 84.398 0.0
62.9883 84.509 0.0
64.4531 84.554 0.0
67.3828 84.655 0.0
68.8477 84.725 0.0
71.7773 84.898 0.0
74.707 85.096 0.0
77.6367 85.287 0.0
79.1016 85.394 0.0
82.0312 85.611 0.0
84.9609 85.823 0.0
87.8906 86.009 0.0
90.8203 86.199 0.0
95.2148 86.45 0.0
98.1445 86.585 0.0
101.074 86.716 0.0
105.469 86.871 0.0
108.398 86.944 0.0
112.793 87.031 0.0
117.188 87.085 0.0
120.117 87.109 0.0
124.512 87.144 0.0
125.0 86.01859999999999 0.0
128.0 86.1712 0.0
132.0 86.36670000000001 0.0
136.0 86.5535 0.0
140.0 86.7319 0.0
145.0 86.94330000000001 0.0
150.0 87.14280000000001 0.0
155.0 87.3311 0.0
160.0 87.50880000000001 0.0
165.0 87.6765 0.0
170.0 87.8344 0.0
175.0 87.98270000000001 0.0
180.0 88.1222 0.0
185.0 88.2536 0.0
190.0 88.3772 0.0
195.0 88.49340000000001 0.0
200.0 88.6026 0.0
206.0 88.7246 0.0
212.0 88.8377 0.0
218.0 88.9424 0.0
224.0 89.0393 0.0
230.0 89.129 0.0
236.0 89.2118 0.0
243.0 89.3005 0.0
250.0 89.3816 0.0
258.0 89.4658 0.0
265.0 89.5326 0.0
272.0 89.5935 0.0
280.0 89.6567 0.0
290.0 89.7276 0.0
300.0 89.7907 0.0
307.0 89.83070000000001 0.0
315.0 89.8727 0.0
325.0 89.9204 0.0
335.0 89.9638 0.0
345.0 90.0034 0.0
355.0 90.0398 0.0
365.0 90.0737 0.0
375.0 90.1053 0.0
387.0 90.1408 0.0
400.0 90.1767 0.0
412.0 90.208 0.0
425.0 90.24 0.0
437.0 90.2679 0.0
450.0 90.2966 0.0
462.0 90.3215 0.0
475.0 90.3467 0.0
487.0 90.3682 0.0
500.0 90.3895 0.0
515.0 90.411 0.0
530.0 90.4287 0.0
545.0 90.4421 0.0
560.0 90.45 0.0
580.0 90.4512 0.0
600.0 90.4406 0.0
615.0 90.42360000000001 0.0
630.0 90.3976 0.0
650.0 90.3494 0.0
670.0 90.2857 0.0
690.0 90.2063 0.0
710.0 90.1114 0.0
730.0 90.00110000000001 0.0
750.0 89.8749 0.0
775.0 89.69460000000001 0.0
800.0 89.4886 0.0
825.0 89.25580000000001 0.0
850.0 88.9979 0.0
875.0 88.7209 0.0
900.0 88.4355 0.0
925.0 88.1561 0.0
950.0 87.899 0.0
975.0 87.6781 0.0
1000.0 87.5032 0.0
1030.0 87.354 0.0
1060.0 87.2598 0.0
1090.0 87.2022 0.0
1120.0 87.1602 0.0
1150.0 87.1175 0.0
1180.0 87.0663 0.0
1220.0 86.9873 0.0
1250.0 86.9276 0.0
1280.0 86.87480000000001 0.0
1320.0 86.8258 0.0
1360.0 86.8167 0.0
1400.0 86.8786 0.0
1450.0 87.0988 0.0
1500.0 87.5036 0.0
1550.0 88.0523 0.0
1600.0 88.6376 0.0
1650.0 89.1508 0.0
1700.0 89.53320000000001 0.0
1750.0 89.7834 0.0
1800.0 89.93090000000001 0.0
1850.0 90.0082 0.0
1900.0 90.044 0.0
1950.0 90.0705 0.0
2000.0 90.1255 0.0
2060.0 90.26050000000001 0.0
2120.0 90.4641 0.0
2180.0 90.6961 0.0
2240.0 90.9205 0.0
2300.0 91.132 0.0
2360.0 91.34440000000001 0.0
2430.0 91.6026 0.0
2500.0 91.8605 0.0
2580.0 92.1348 0.0
2650.0 92.34870000000001 0.0
2720.0 92.5312 0.0
2800.0 92.6777 0.0
2900.0 92.7557 0.0
3000.0 92.7852 0.0
3070.0 92.8098 0.0
3150.0 92.8228 0.0
3250.0 92.78960000000001 0.0
3350.0 92.7139 0.0
3450.0 92.5871 0.0
3550.0 92.42830000000001 0.0
3650.0 92.2841 0.0
3750.0 92.1961 0.0
3870.0 92.1631 0.0
4000.0 92.144 0.0
4120.0 92.117 0.0
4250.0 92.0587 0.0
4370.0 91.9524 0.0
4500.0 91.7764 0.0
4620.0 91.5913 0.0
4750.0 91.4145 0.0
4870.0 91.33 0.0
5000.0 91.339 0.0
5150.0 91.4086 0.0
5300.0 91.424 0.0
5450.0 91.4025 0.0
5600.0 91.4133 0.0
5800.0 91.4259 0.0
6000.0 91.2115 0.0
6150.0 90.8536 0.0
6300.0 90.388 0.0
6500.0 89.7957 0.0
6700.0 89.3513 0.0
6900.0 88.994 0.0
7100.0 88.74040000000001 0.0
7300.0 88.6304 0.0
7500.0 88.5353 0.0
7750.0 88.3583 0.0
8000.0 88.2251 0.0
8250.0 88.0202 0.0
8500.0 87.7704 0.0
8750.0 87.5502 0.0
9000.0 87.0532 0.0
9250.0 86.31960000000001 0.0
9500.0 85.9157 0.0
9750.0 85.8921 0.0
10000.0 85.7687 0.0
10300.0 85.2362 0.0
10600.0 84.3558 0.0
10900.0 83.2542 0.0
11200.0 82.3749 0.0
11500.0 82.01570000000001 0.0
11800.0 81.8412 0.0
12200.0 81.32169999999999 0.0
12500.0 80.7872 0.0
12800.0 80.0541 0.0
13200.0 78.7921 0.0
13600.0 77.3978 0.0
14000.0 76.0601 0.0
14500.0 75.3887 0.0
15000.0 75.5292 0.0
15500.0 75.16669999999999 0.0
16000.0 75.2624 0.0
16500.0 76.4316 0.0
17000.0 77.78280000000001 0.0
17500.0 79.1036 0.0
18000.0 80.4005 0.0
18500.0 81.2337 0.0
19000.0 81.49860000000001 0.0
19500.0 81.5305 0.0
