Freq Spl Phase
20.5078 57.819 0.0
21.9727 59.823 0.0
23.4375 61.839 0.0
24.9023 63.108 0.0
26.3672 64.897 0.0
27.832 66.84 0.0
29.2969 68.694 0.0
30.7617 70.421 0.0
32.2266 72.14 0.0
33.6914 73.872 0.0
35.1562 75.485 0.0
36.6211 76.693 0.0
38.0859 77.992 0.0
39.5508 79.164 0.0
41.0156 80.239 0.0
42.4805 81.212 0.0
43.9453 82.046 0.0
45.4102 82.714 0.0
46.875 83.14 0.0
48.3398 83.512 0.0
51.2695 83.935 0.0
52.7344 84.049 0.0
54.1992 84.132 0.0
55.6641 84.204 0.0
58.5938 84.33 0.0
60.0586 84.398 0.0
62.9883 84.509 0.0
64.4531 84.554 0.0
67.3828 84.655 0.0
68.8477 84.725 0.0
71.7773 84.898 0.0
74.707 85.096 0.0
77.6367 85.287 0.0
79.1016 85.394 0.0
82.0312 85.611 0.0
84.9609 85.823 0.0
87.8906 86.009 0.0
90.8203 86.199 0.0
95.2148 86.45 0.0
98.1445 86.585 0.0
101.074 86.716 0.0
105.469 86.871 0.0
108.398 86.944 0.0
112.793 87.031 0.0
117.188 87.085 0.0
120.117 87.109 0.0
124.512 87.144 0.0
125.0 89.0727 0.0
128.0 89.2395 0.0
132.0 89.4531 0.0
136.0 89.6574 0.0
140.0 89.8524 0.0
145.0 90.0835 0.0
150.0 90.3018 0.0
155.0 90.5077 0.0
160.0 90.7021 0.0
165.0 90.8853 0.0
170.0 91.0577 0.0
175.0 91.2192 0.0
180.0 91.3707 0.0
185.0 91.5127 0.0
190.0 91.6456 0.0
195.0 91.7698 0.0
200.0 91.8852 0.0
206.0 92.0126 0.0
212.0 92.1286 0.0
218.0 92.2335 0.0
224.0 92.3279 0.0
230.0 92.4123 0.0
236.0 92.4868 0.0
243.0 92.5624 0.0
250.0 92.6267 0.0
258.0 92.6872 0.0
265.0 92.72970000000001 0.0
272.0 92.7631 0.0
280.0 92.792 0.0
290.0 92.8165 0.0
300.0 92.8315 0.0
307.0 92.8376 0.0
315.0 92.8417 0.0
325.0 92.845 0.0
335.0 92.8489 0.0
345.0 92.8556 0.0
355.0 92.867 0.0
365.0 92.8839 0.0
375.0 92.907 0.0
387.0 92.9426 0.0
400.0 92.9888 0.0
412.0 93.0359 0.0
425.0 93.0885 0.0
437.0 93.1353 0.0
450.0 93.181 0.0
462.0 93.21600000000001 0.0
475.0 93.2444 0.0
487.0 93.2613 0.0
500.0 93.2697 0.0
515.0 93.269 0.0
530.0 93.2611 0.0
545.0 93.2508 0.0
560.0 93.244 0.0
580.0 93.248 0.0
600.0 93.2723 0.0
615.0 93.3043 0.0
630.0 93.3458 0.0
650.0 93.4054 0.0
670.0 93.45530000000001 0.0
690.0 93.4794 0.0
710.0 93.4636 0.0
730.0 93.3982 0.0
750.0 93.2774 0.0
775.0 93.0548 0.0
800.0 92.77080000000001 0.0
825.0 92.4522 0.0
850.0 92.1329 0.0
875.0 91.8435 0.0
900.0 91.6037 0.0
925.0 91.4192 0.0
950.0 91.2852 0.0
975.0 91.1937 0.0
1000.0 91.1412 0.0
1030.0 91.1307 0.0
1060.0 91.18260000000001 0.0
1090.0 91.2946 0.0
1120.0 91.4469 0.0
1150.0 91.6072 0.0
1180.0 91.74210000000001 0.0
1220.0 91.8555 0.0
1250.0 91.8853 0.0
1280.0 91.8676 0.0
1320.0 91.7795 0.0
1360.0 91.6038 0.0
1400.0 91.3037 0.0
1450.0 90.7517 0.0
1500.0 90.1147 0.0
1550.0 89.6236 0.0
1600.0 89.4674 0.0
1650.0 89.6327 0.0
1700.0 89.9935 0.0
1750.0 90.4665 0.0
1800.0 90.9993 0.0
1850.0 91.4993 0.0
1900.0 91.8644 0.0
1950.0 92.0695 0.0
2000.0 92.185 0.0
2060.0 92.3125 0.0
2120.0 92.4273 0.0
2180.0 92.45230000000001 0.0
2240.0 92.3934 0.0
2300.0 92.3234 0.0
2360.0 92.235 0.0
2430.0 92.0463 0.0
2500.0 91.837 0.0
2580.0 91.6693 0.0
2650.0 91.4826 0.0
2720.0 91.321 0.0
2800.0 91.3015 0.0
2900.0 91.36540000000001 0.0
3000.0 91.4839 0.0
3070.0 91.64150000000001 0.0
3150.0 91.7976 0.0
3250.0 91.9858 0.0
3350.0 92.2731 0.0
3450.0 92.561 0.0
3550.0 92.9071 0.0
3650.0 93.242 0.0
3750.0 93.5341 0.0
3870.0 93.8757 0.0
4000.0 94.238 0.0
4120.0 94.5491 0.0
4250.0 94.7749 0.0
4370.0 94.8096 0.0
4500.0 94.702 0.0
4620.0 94.5801 0.0
4750.0 94.4703 0.0
4870.0 94.4794 0.0
5000.0 94.5842 0.0
5150.0 94.7855 0.0
5300.0 94.9291 0.0
5450.0 94.9075 0.0
5600.0 94.8407 0.0
5800.0 95.09140000000001 0.0
6000.0 95.3987 0.0
6150.0 95.3614 0.0
6300.0 95.2096 0.0
6500.0 95.1519 0.0
6700.0 95.236 0.0
6900.0 95.236 0.0
7100.0 95.0687 0.0
7300.0 94.7904 0.0
7500.0 94.3014 0.0
7750.0 93.4455 0.0
8000.0 92.7243 0.0
8250.0 92.1344 0.0
8500.0 91.785 0.0
8750.0 91.9547 0.0
9000.0 92.3772 0.0
9250.0 92.6229 0.0
9500.0 92.8267 0.0
9750.0 93.0637 0.0
10000.0 93.0226 0.0
10300.0 92.6773 0.0
10600.0 92.555 0.0
10900.0 92.5081 0.0
11200.0 92.3024 0.0
11500.0 92.1378 0.0
11800.0 92.0896 0.0
12200.0 91.9711 0.0
12500.0 91.9946 0.0
12800.0 92.0662 0.0
13200.0 92.1277 0.0
13600.0 92.289 0.0
14000.0 92.4512 0.0
14500.0 92.62480000000001 0.0
15000.0 93.1563 0.0
15500.0 93.5599 0.0
16000.0 93.3494 0.0
16500.0 92.7667 0.0
17000.0 92.2487 0.0
17500.0 91.626 0.0
18000.0 90.7111 0.0
18500.0 89.6681 0.0
19000.0 88.8473 0.0
19500.0 88.4436 0.0
