Freq Spl Phase
20.5078 57.819 0.0
21.9727 59.823 0.0
23.4375 61.839 0.0
24.9023 63.108 0.0
26.3672 64.897 0.0
27.832 66.84 0.0
29.2969 68.694 0.0
30.7617 70.421 0.0
32.2266 72.14 0.0
33.6914 73.872 0.0
35.1562 75.485 0.0
36.6211 76.693 0.0
38.0859 77.992 0.0
39.5508 79.164 0.0
41.0156 80.239 0.0
42.4805 81.212 0.0
43.9453 82.046 0.0
45.4102 82.714 0.0
46.875 83.14 0.0
48.3398 83.512 0.0
51.2695 83.935 0.0
52.7344 84.049 0.0
54.1992 84.132 0.0
55.6641 84.204 0.0
58.5938 84.33 0.0
60.0586 84.398 0.0
62.9883 84.509 0.0
64.4531 84.554 0.0
67.3828 84.655 0.0
68.8477 84.725 0.0
71.7773 84.898 0.0
74.707 85.096 0.0
77.6367 85.287 0.0
79.1016 85.394 0.0
82.0312 85.611 0.0
84.9609 85.823 0.0
87.8906 86.009 0.0
90.8203 86.199 0.0
95.2148 86.45 0.0
98.1445 86.585 0.0
101.074 86.716 0.0
105.469 86.871 0.0
108.398 86.944 0.0
112.793 87.031 0.0
117.188 87.085 0.0
120.117 87.109 0.0
124.512 87.144 0.0
125.0 83.4965 0.0
128.0 83.6873 0.0
132.0 83.9298 0.0
136.0 84.1594 0.0
140.0 84.376 0.0
145.0 84.6283 0.0
150.0 84.86189999999999 0.0
155.0 85.07740000000001 0.0
160.0 85.2756 0.0
165.0 85.4572 0.0
170.0 85.62219999999999 0.0
175.0 85.7706 0.0
180.0 85.9038 0.0
185.0 86.0228 0.0
190.0 86.1283 0.0
195.0 86.221 0.0
200.0 86.301 0.0
206.0 86.3812 0.0
212.0 86.4456 0.0
218.0 86.4953 0.0
224.0 86.5316 0.0
230.0 86.5555 0.0
236.0 86.5681 0.0
243.0 86.5704 0.0
250.0 86.5612 0.0
258.0 86.5388 0.0
265.0 86.5103 0.0
272.0 86.47489999999999 0.0
280.0 86.42830000000001 0.0
290.0 86.36359999999999 0.0
300.0 86.2946 0.0
307.0 86.2447 0.0
315.0 86.1867 0.0
325.0 86.1139 0.0
335.0 86.0413 0.0
345.0 85.9687 0.0
355.0 85.8961 0.0
365.0 85.82300000000001 0.0
375.0 85.749 0.0
387.0 85.6584 0.0
400.0 85.55799999999999 0.0
412.0 85.4633 0.0
425.0 85.3593 0.0
437.0 85.2629 0.0
450.0 85.1597 0.0
462.0 85.0673 0.0
475.0 84.9725 0.0
487.0 84.8921 0.0
500.0 84.81530000000001 0.0
515.0 84.7424 0.0
530.0 84.6888 0.0
545.0 84.6565 0.0
560.0 84.6462 0.0
580.0 84.6619 0.0
600.0 84.7025 0.0
615.0 84.7428 0.0
630.0 84.7855 0.0
650.0 84.83619999999999 0.0
670.0 84.8694 0.0
690.0 84.8774 0.0
710.0 84.856 0.0
730.0 84.805 0.0
750.0 84.7267 0.0
775.0 84.59790000000001 0.0
800.0 84.4426 0.0
825.0 84.2634 0.0
850.0 84.0592 0.0
875.0 83.827 0.0
900.0 83.5658 0.0
925.0 83.27969999999999 0.0
950.0 82.9785 0.0
975.0 82.6769 0.0
1000.0 82.39070000000001 0.0
1030.0 82.0831 0.0
1060.0 81.8209 0.0
1090.0 81.5974 0.0
1120.0 81.3954 0.0
1150.0 81.197 0.0
1180.0 80.99080000000001 0.0
1220.0 80.7038 0.0
1250.0 80.4881 0.0
1280.0 80.279 0.0
1320.0 80.0156 0.0
1360.0 79.7715 0.0
1400.0 79.564 0.0
1450.0 79.4059 0.0
1500.0 79.4209 0.0
1550.0 79.6098 0.0
1600.0 79.89269999999999 0.0
1650.0 80.1676 0.0
1700.0 80.3738 0.0
1750.0 80.5024 0.0
1800.0 80.5622 0.0
1850.0 80.5575 0.0
1900.0 80.5041 0.0
1950.0 80.44749999999999 0.0
2000.0 80.4372 0.0
2060.0 80.4817 0.0
2120.0 80.5058 0.0
2180.0 80.4553 0.0
2240.0 80.37559999999999 0.0
2300.0 80.3396 0.0
2360.0 80.35419999999999 0.0
2430.0 80.3934 0.0
2500.0 80.4576 0.0
2580.0 80.57990000000001 0.0
2650.0 80.6973 0.0
2720.0 80.82339999999999 0.0
2800.0 80.9961 0.0
2900.0 81.1931 0.0
3000.0 81.3055 0.0
3070.0 81.361 0.0
3150.0 81.31360000000001 0.0
3250.0 81.0091 0.0
3350.0 80.5624 0.0
3450.0 80.0918 0.0
3550.0 79.7122 0.0
3650.0 79.4521 0.0
3750.0 79.15610000000001 0.0
3870.0 78.7009 0.0
4000.0 78.3944 0.0
4120.0 78.3343 0.0
4250.0 78.21809999999999 0.0
4370.0 78.02680000000001 0.0
4500.0 77.7137 0.0
4620.0 77.28710000000001 0.0
4750.0 76.77080000000001 0.0
4870.0 76.49170000000001 0.0
5000.0 76.57480000000001 0.0
5150.0 76.8961 0.0
5300.0 76.8083 0.0
5450.0 76.1574 0.0
5600.0 75.30199999999999 0.0
5800.0 74.3143 0.0
6000.0 73.63640000000001 0.0
6150.0 73.5545 0.0
6300.0 73.7599 0.0
6500.0 73.879 0.0
6700.0 73.33109999999999 0.0
6900.0 72.2877 0.0
7100.0 71.2654 0.0
7300.0 70.319 0.0
7500.0 69.18 0.0
7750.0 67.7179 0.0
8000.0 67.0817 0.0
8250.0 67.4497 0.0
8500.0 67.6866 0.0
8750.0 66.9452 0.0
9000.0 65.6033 0.0
9250.0 64.79169999999999 0.0
9500.0 64.69839999999999 0.0
9750.0 64.7482 0.0
10000.0 64.5117 0.0
10300.0 63.7364 0.0
10600.0 62.684200000000004 0.0
10900.0 61.0336 0.0
11200.0 59.4764 0.0
11500.0 58.3487 0.0
11800.0 57.6333 0.0
12200.0 56.8217 0.0
12500.0 56.107800000000005 0.0
12800.0 53.3507 0.0
13200.0 48.2323 0.0
13600.0 47.0985 0.0
14000.0 50.256600000000006 0.0
14500.0 54.6677 0.0
15000.0 56.107 0.0
15500.0 57.3273 0.0
16000.0 59.809000000000005 0.0
16500.0 62.200900000000004 0.0
17000.0 63.8497 0.0
17500.0 64.07300000000001 0.0
18000.0 63.1184 0.0
18500.0 61.8479 0.0
19000.0 60.566900000000004 0.0
19500.0 59.8857 0.0
