Freq Spl Phase
20.5078 57.819 0.0
21.9727 59.823 0.0
23.4375 61.839 0.0
24.9023 63.108 0.0
26.3672 64.897 0.0
27.832 66.84 0.0
29.2969 68.694 0.0
30.7617 70.421 0.0
32.2266 72.14 0.0
33.6914 73.872 0.0
35.1562 75.485 0.0
36.6211 76.693 0.0
38.0859 77.992 0.0
39.5508 79.164 0.0
41.0156 80.239 0.0
42.4805 81.212 0.0
43.9453 82.046 0.0
45.4102 82.714 0.0
46.875 83.14 0.0
48.3398 83.512 0.0
51.2695 83.935 0.0
52.7344 84.049 0.0
54.1992 84.132 0.0
55.6641 84.204 0.0
58.5938 84.33 0.0
60.0586 84.398 0.0
62.9883 84.509 0.0
64.4531 84.554 0.0
67.3828 84.655 0.0
68.8477 84.725 0.0
71.7773 84.898 0.0
74.707 85.096 0.0
77.6367 85.287 0.0
79.1016 85.394 0.0
82.0312 85.611 0.0
84.9609 85.823 0.0
87.8906 86.009 0.0
90.8203 86.199 0.0
95.2148 86.45 0.0
98.1445 86.585 0.0
101.074 86.716 0.0
105.469 86.871 0.0
108.398 86.944 0.0
112.793 87.031 0.0
117.188 87.085 0.0
120.117 87.109 0.0
124.512 87.144 0.0
125.0 88.4567 0.0
128.0 88.6504 0.0
132.0 88.8987 0.0
136.0 89.1361 0.0
140.0 89.3626 0.0
145.0 89.6307 0.0
150.0 89.8833 0.0
155.0 90.121 0.0
160.0 90.3443 0.0
165.0 90.5538 0.0
170.0 90.7496 0.0
175.0 90.9318 0.0
180.0 91.1012 0.0
185.0 91.2585 0.0
190.0 91.4043 0.0
195.0 91.539 0.0
200.0 91.6627 0.0
206.0 91.7971 0.0
212.0 91.91720000000001 0.0
218.0 92.0239 0.0
224.0 92.1177 0.0
230.0 92.1996 0.0
236.0 92.2701 0.0
243.0 92.3394 0.0
250.0 92.3961 0.0
258.0 92.4473 0.0
265.0 92.4813 0.0
272.0 92.5064 0.0
280.0 92.5265 0.0
290.0 92.5417 0.0
300.0 92.5497 0.0
307.0 92.5527 0.0
315.0 92.5552 0.0
325.0 92.5595 0.0
335.0 92.5672 0.0
345.0 92.5808 0.0
355.0 92.6015 0.0
365.0 92.6301 0.0
375.0 92.6666 0.0
387.0 92.7199 0.0
400.0 92.7863 0.0
412.0 92.8523 0.0
425.0 92.9247 0.0
437.0 92.9885 0.0
450.0 93.0507 0.0
462.0 93.0989 0.0
475.0 93.1396 0.0
487.0 93.16590000000001 0.0
500.0 93.18260000000001 0.0
515.0 93.1901 0.0
530.0 93.1893 0.0
545.0 93.1859 0.0
560.0 93.1865 0.0
580.0 93.2015 0.0
600.0 93.2386 0.0
615.0 93.28150000000001 0.0
630.0 93.33500000000001 0.0
650.0 93.4114 0.0
670.0 93.4776 0.0
690.0 93.5163 0.0
710.0 93.5116 0.0
730.0 93.4529 0.0
750.0 93.3338 0.0
775.0 93.1068 0.0
800.0 92.8118 0.0
825.0 92.4769 0.0
850.0 92.1382 0.0
875.0 91.8294 0.0
900.0 91.5729 0.0
925.0 91.3757 0.0
950.0 91.2316 0.0
975.0 91.1304 0.0
1000.0 91.0684 0.0
1030.0 91.0517 0.0
1060.0 91.114 0.0
1090.0 91.2641 0.0
1120.0 91.484 0.0
1150.0 91.7325 0.0
1180.0 91.9597 0.0
1220.0 92.1828 0.0
1250.0 92.2808 0.0
1280.0 92.3275 0.0
1320.0 92.345 0.0
1360.0 92.3272 0.0
1400.0 92.2594 0.0
1450.0 92.1042 0.0
1500.0 91.967 0.0
1550.0 92.0193 0.0
1600.0 92.33 0.0
1650.0 92.7838 0.0
1700.0 93.2281 0.0
1750.0 93.6166 0.0
1800.0 93.9765 0.0
1850.0 94.3009 0.0
1900.0 94.5317 0.0
1950.0 94.64020000000001 0.0
2000.0 94.6821 0.0
2060.0 94.751 0.0
2120.0 94.8438 0.0
2180.0 94.8687 0.0
2240.0 94.8187 0.0
2300.0 94.7784 0.0
2360.0 94.75880000000001 0.0
2430.0 94.7043 0.0
2500.0 94.6797 0.0
2580.0 94.7709 0.0
2650.0 94.8483 0.0
2720.0 94.96170000000001 0.0
2800.0 95.1975 0.0
2900.0 95.4107 0.0
3000.0 95.4868 0.0
3070.0 95.5917 0.0
3150.0 95.6956 0.0
3250.0 95.7444 0.0
3350.0 95.7286 0.0
3450.0 95.5578 0.0
3550.0 95.3511 0.0
3650.0 95.1045 0.0
3750.0 94.8972 0.0
3870.0 94.84570000000001 0.0
4000.0 94.9538 0.0
4120.0 95.1864 0.0
4250.0 95.4327 0.0
4370.0 95.6181 0.0
4500.0 95.7656 0.0
4620.0 95.8466 0.0
4750.0 95.9168 0.0
4870.0 96.05160000000001 0.0
5000.0 96.2591 0.0
5150.0 96.498 0.0
5300.0 96.5544 0.0
5450.0 96.3659 0.0
5600.0 96.1519 0.0
5800.0 96.3008 0.0
6000.0 96.5761 0.0
6150.0 96.53490000000001 0.0
6300.0 96.3717 0.0
6500.0 96.2369 0.0
6700.0 96.1517 0.0
6900.0 96.0037 0.0
7100.0 95.8432 0.0
7300.0 95.71940000000001 0.0
7500.0 95.5836 0.0
7750.0 95.4008 0.0
8000.0 95.1652 0.0
8250.0 94.5994 0.0
8500.0 93.929 0.0
8750.0 93.72240000000001 0.0
9000.0 93.8698 0.0
9250.0 93.93860000000001 0.0
9500.0 94.0343 0.0
9750.0 94.2486 0.0
10000.0 94.2604 0.0
10300.0 93.98270000000001 0.0
10600.0 93.8537 0.0
10900.0 93.82900000000001 0.0
11200.0 93.727 0.0
11500.0 93.6671 0.0
11800.0 93.6561 0.0
12200.0 93.5386 0.0
12500.0 93.5505 0.0
12800.0 93.61410000000001 0.0
13200.0 93.6764 0.0
13600.0 93.8393 0.0
14000.0 93.8188 0.0
14500.0 93.3259 0.0
15000.0 93.1173 0.0
15500.0 93.3069 0.0
16000.0 93.43 0.0
16500.0 93.1524 0.0
17000.0 92.43730000000001 0.0
17500.0 91.6471 0.0
18000.0 91.5732 0.0
18500.0 91.98740000000001 0.0
19000.0 92.2046 0.0
19500.0 92.23 0.0
