Freq Spl Phase
20.5078 57.819 0.0
21.9727 59.823 0.0
23.4375 61.839 0.0
24.9023 63.108 0.0
26.3672 64.897 0.0
27.832 66.84 0.0
29.2969 68.694 0.0
30.7617 70.421 0.0
32.2266 72.14 0.0
33.6914 73.872 0.0
35.1562 75.485 0.0
36.6211 76.693 0.0
38.0859 77.992 0.0
39.5508 79.164 0.0
41.0156 80.239 0.0
42.4805 81.212 0.0
43.9453 82.046 0.0
45.4102 82.714 0.0
46.875 83.14 0.0
48.3398 83.512 0.0
51.2695 83.935 0.0
52.7344 84.049 0.0
54.1992 84.132 0.0
55.6641 84.204 0.0
58.5938 84.33 0.0
60.0586 84.398 0.0
62.9883 84.509 0.0
64.4531 84.554 0.0
67.3828 84.655 0.0
68.8477 84.725 0.0
71.7773 84.898 0.0
74.707 85.096 0.0
77.6367 85.287 0.0
79.1016 85.394 0.0
82.0312 85.611 0.0
84.9609 85.823 0.0
87.8906 86.009 0.0
90.8203 86.199 0.0
95.2148 86.45 0.0
98.1445 86.585 0.0
101.074 86.716 0.0
105.469 86.871 0.0
108.398 86.944 0.0
112.793 87.031 0.0
117.188 87.085 0.0
120.117 87.109 0.0
124.512 87.144 0.0
128.906 87.141 0.0
133.301 87.063 0.0
139.16 86.906 0.0
143.555 86.835 0.0
147.949 86.791 0.0
300.0 79.8369 0.0
307.0 79.81479999999999 0.0
315.0 79.7836 0.0
325.0 79.7367 0.0
335.0 79.68119999999999 0.0
345.0 79.6165 0.0
355.0 79.54239999999999 0.0
365.0 79.4591 0.0
375.0 79.3665 0.0
387.0 79.2432 0.0
400.0 79.0967 0.0
412.0 78.9512 0.0
425.0 78.78469999999999 0.0
437.0 78.62559999999999 0.0
450.0 78.4505 0.0
462.0 78.2893 0.0
475.0 78.1182 0.0
487.0 77.9658 0.0
500.0 77.8085 0.0
515.0 77.6379 0.0
530.0 77.47829999999999 0.0
545.0 77.327 0.0
560.0 77.17949999999999 0.0
580.0 76.9796 0.0
600.0 76.7645 0.0
615.0 76.58529999999999 0.0
630.0 76.3844 0.0
650.0 76.08189999999999 0.0
670.0 75.74019999999999 0.0
690.0 75.3621 0.0
710.0 74.9549 0.0
730.0 74.5264 0.0
750.0 74.0829 0.0
775.0 73.5128 0.0
800.0 72.9229 0.0
825.0 72.303 0.0
850.0 71.6433 0.0
875.0 70.9425 0.0
900.0 70.2144 0.0
925.0 69.49 0.0
950.0 68.8128 0.0
975.0 68.2273 0.0
1000.0 67.76429999999999 0.0
1030.0 67.3639 0.0
1060.0 67.0762 0.0
1090.0 66.8162 0.0
1120.0 66.5072 0.0
1150.0 66.1227 0.0
1180.0 65.71209999999999 0.0
1220.0 65.28479999999999 0.0
1250.0 65.2067 0.0
1280.0 65.41239999999999 0.0
1320.0 66.0214 0.0
1360.0 66.7909 0.0
1400.0 67.5445 0.0
1450.0 68.40029999999999 0.0
1500.0 69.2478 0.0
1550.0 70.12729999999999 0.0
1600.0 70.9455 0.0
1650.0 71.58109999999999 0.0
1700.0 72.0144 0.0
1750.0 72.33179999999999 0.0
1800.0 72.63159999999999 0.0
1850.0 72.9473 0.0
1900.0 73.25659999999999 0.0
1950.0 73.53739999999999 0.0
2000.0 73.79079999999999 0.0
2060.0 74.06389999999999 0.0
2120.0 74.28399999999999 0.0
2180.0 74.4316 0.0
2240.0 74.517 0.0
2300.0 74.5661 0.0
2360.0 74.59 0.0
2430.0 74.5678 0.0
2500.0 74.4596 0.0
2580.0 74.2606 0.0
2650.0 74.113 0.0
2720.0 73.9927 0.0
2800.0 73.7637 0.0
2900.0 73.3187 0.0
3000.0 73.00659999999999 0.0
3070.0 72.9405 0.0
3150.0 73.00989999999999 0.0
3250.0 73.2661 0.0
3350.0 73.62989999999999 0.0
3450.0 73.9387 0.0
3550.0 74.08449999999999 0.0
3650.0 74.03739999999999 0.0
3750.0 73.78039999999999 0.0
3870.0 73.2269 0.0
4000.0 72.54239999999999 0.0
4120.0 72.1322 0.0
4250.0 72.0914 0.0
4370.0 72.3493 0.0
4500.0 72.7032 0.0
4620.0 72.8982 0.0
4750.0 72.93549999999999 0.0
4870.0 72.8561 0.0
5000.0 72.66909999999999 0.0
5150.0 72.3219 0.0
5300.0 71.94669999999999 0.0
5450.0 71.644 0.0
5600.0 71.3981 0.0
5800.0 70.99789999999999 0.0
6000.0 70.2473 0.0
6150.0 69.5645 0.0
6300.0 69.16059999999999 0.0
6500.0 69.1505 0.0
6700.0 69.1677 0.0
6900.0 68.8115 0.0
7100.0 67.9906 0.0
7300.0 67.0161 0.0
7500.0 66.20009999999999 0.0
7750.0 65.7328 0.0
8000.0 65.7329 0.0
8250.0 65.1433 0.0
8500.0 63.9666 0.0
8750.0 62.855599999999995 0.0
9000.0 61.9419 0.0
9250.0 60.9471 0.0
9500.0 59.756099999999996 0.0
9750.0 58.2681 0.0
10000.0 56.5532 0.0
10300.0 55.572599999999994 0.0
10600.0 55.8735 0.0
10900.0 55.148999999999994 0.0
11200.0 52.660799999999995 0.0
11500.0 50.5376 0.0
11800.0 50.120599999999996 0.0
12200.0 50.7911 0.0
12500.0 50.931099999999994 0.0
12800.0 50.4503 0.0
13200.0 48.5128 0.0
13600.0 45.2688 0.0
14000.0 38.84739999999999 0.0
14500.0 31.0798 0.0
15000.0 38.380799999999994 0.0
15500.0 44.7843 0.0
16000.0 48.2341 0.0
16500.0 49.8445 0.0
17000.0 50.211099999999995 0.0
17500.0 50.8976 0.0
18000.0 49.655899999999995 0.0
18500.0 47.7359 0.0
19000.0 46.4342 0.0
19500.0 43.2513 0.0
