Freq Spl Phase
20.5078 57.819 0.0
21.9727 59.823 0.0
23.4375 61.839 0.0
24.9023 63.108 0.0
26.3672 64.897 0.0
27.832 66.84 0.0
29.2969 68.694 0.0
30.7617 70.421 0.0
32.2266 72.14 0.0
33.6914 73.872 0.0
35.1562 75.485 0.0
36.6211 76.693 0.0
38.0859 77.992 0.0
39.5508 79.164 0.0
41.0156 80.239 0.0
42.4805 81.212 0.0
43.9453 82.046 0.0
45.4102 82.714 0.0
46.875 83.14 0.0
48.3398 83.512 0.0
51.2695 83.935 0.0
52.7344 84.049 0.0
54.1992 84.132 0.0
55.6641 84.204 0.0
58.5938 84.33 0.0
60.0586 84.398 0.0
62.9883 84.509 0.0
64.4531 84.554 0.0
67.3828 84.655 0.0
68.8477 84.725 0.0
71.7773 84.898 0.0
74.707 85.096 0.0
77.6367 85.287 0.0
79.1016 85.394 0.0
82.0312 85.611 0.0
84.9609 85.823 0.0
87.8906 86.009 0.0
90.8203 86.199 0.0
95.2148 86.45 0.0
98.1445 86.585 0.0
101.074 86.716 0.0
105.469 86.871 0.0
108.398 86.944 0.0
112.793 87.031 0.0
117.188 87.085 0.0
120.117 87.109 0.0
124.512 87.144 0.0
128.906 87.141 0.0
133.301 87.063 0.0
139.16 86.906 0.0
143.555 86.835 0.0
147.949 86.791 0.0
300.0 80.5743 0.0
307.0 80.53949999999999 0.0
315.0 80.4918 0.0
325.0 80.4222 0.0
335.0 80.34209999999999 0.0
345.0 80.2519 0.0
355.0 80.1522 0.0
365.0 80.04409999999999 0.0
375.0 79.9282 0.0
387.0 79.7803 0.0
400.0 79.612 0.0
412.0 79.4511 0.0
425.0 79.2734 0.0
437.0 79.1082 0.0
450.0 78.9301 0.0
462.0 78.7681 0.0
475.0 78.5966 0.0
487.0 78.4428 0.0
500.0 78.2817 0.0
515.0 78.1028 0.0
530.0 77.93109999999999 0.0
545.0 77.7656 0.0
560.0 77.6051 0.0
580.0 77.3967 0.0
600.0 77.1916 0.0
615.0 77.03739999999999 0.0
630.0 76.8797 0.0
650.0 76.6602 0.0
670.0 76.4228 0.0
690.0 76.1579 0.0
710.0 75.8553 0.0
730.0 75.5054 0.0
750.0 75.0985 0.0
775.0 74.5098 0.0
800.0 73.84889999999999 0.0
825.0 73.1585 0.0
850.0 72.51329999999999 0.0
875.0 71.99459999999999 0.0
900.0 71.6519 0.0
925.0 71.4727 0.0
950.0 71.3869 0.0
975.0 71.3023 0.0
1000.0 71.14099999999999 0.0
1030.0 70.8075 0.0
1060.0 70.3677 0.0
1090.0 69.9615 0.0
1120.0 69.7605 0.0
1150.0 69.84 0.0
1180.0 70.11009999999999 0.0
1220.0 70.4704 0.0
1250.0 70.52529999999999 0.0
1280.0 70.27789999999999 0.0
1320.0 69.50659999999999 0.0
1360.0 68.4296 0.0
1400.0 67.4018 0.0
1450.0 66.50049999999999 0.0
1500.0 65.7038 0.0
1550.0 64.227 0.0
1600.0 61.492599999999996 0.0
1650.0 58.1631 0.0
1700.0 56.403 0.0
1750.0 56.8028 0.0
1800.0 57.5639 0.0
1850.0 57.73009999999999 0.0
1900.0 58.2896 0.0
1950.0 60.203199999999995 0.0
2000.0 63.024699999999996 0.0
2060.0 66.1188 0.0
2120.0 68.3018 0.0
2180.0 69.9767 0.0
2240.0 71.52019999999999 0.0
2300.0 72.7957 0.0
2360.0 73.45769999999999 0.0
2430.0 73.50309999999999 0.0
2500.0 73.3512 0.0
2580.0 73.3013 0.0
2650.0 73.1488 0.0
2720.0 73.04339999999999 0.0
2800.0 73.298 0.0
2900.0 73.7776 0.0
3000.0 73.8424 0.0
3070.0 73.7087 0.0
3150.0 73.3402 0.0
3250.0 72.50389999999999 0.0
3350.0 71.4867 0.0
3450.0 70.66749999999999 0.0
3550.0 70.195 0.0
3650.0 69.8745 0.0
3750.0 69.6115 0.0
3870.0 69.3743 0.0
4000.0 69.27629999999999 0.0
4120.0 69.7037 0.0
4250.0 70.45079999999999 0.0
4370.0 71.0558 0.0
4500.0 71.5204 0.0
4620.0 71.82149999999999 0.0
4750.0 72.0122 0.0
4870.0 72.0001 0.0
5000.0 71.757 0.0
5150.0 71.5475 0.0
5300.0 71.59469999999999 0.0
5450.0 71.50309999999999 0.0
5600.0 71.0224 0.0
5800.0 70.2743 0.0
6000.0 69.84299999999999 0.0
6150.0 69.6737 0.0
6300.0 69.5558 0.0
6500.0 69.4076 0.0
6700.0 69.1831 0.0
6900.0 68.7319 0.0
7100.0 68.1612 0.0
7300.0 67.5516 0.0
7500.0 66.79849999999999 0.0
7750.0 65.6711 0.0
8000.0 64.58189999999999 0.0
8250.0 63.520799999999994 0.0
8500.0 62.1481 0.0
8750.0 61.110299999999995 0.0
9000.0 60.7341 0.0
9250.0 60.0428 0.0
9500.0 58.985299999999995 0.0
9750.0 58.009299999999996 0.0
10000.0 57.3512 0.0
10300.0 56.9447 0.0
10600.0 56.873799999999996 0.0
10900.0 56.6951 0.0
11200.0 56.3347 0.0
11500.0 55.8161 0.0
11800.0 55.454699999999995 0.0
12200.0 55.5121 0.0
12500.0 55.5175 0.0
12800.0 54.8463 0.0
13200.0 53.212599999999995 0.0
13600.0 50.8217 0.0
14000.0 48.1859 0.0
14500.0 47.78099999999999 0.0
15000.0 49.3561 0.0
15500.0 52.4886 0.0
16000.0 55.293099999999995 0.0
16500.0 56.9972 0.0
17000.0 57.8902 0.0
17500.0 57.75129999999999 0.0
18000.0 56.4314 0.0
18500.0 54.110299999999995 0.0
19000.0 51.984899999999996 0.0
19500.0 51.305499999999995 0.0
