Freq Spl Phase
20.5078 57.819 0.0
21.9727 59.823 0.0
23.4375 61.839 0.0
24.9023 63.108 0.0
26.3672 64.897 0.0
27.832 66.84 0.0
29.2969 68.694 0.0
30.7617 70.421 0.0
32.2266 72.14 0.0
33.6914 73.872 0.0
35.1562 75.485 0.0
36.6211 76.693 0.0
38.0859 77.992 0.0
39.5508 79.164 0.0
41.0156 80.239 0.0
42.4805 81.212 0.0
43.9453 82.046 0.0
45.4102 82.714 0.0
46.875 83.14 0.0
48.3398 83.512 0.0
51.2695 83.935 0.0
52.7344 84.049 0.0
54.1992 84.132 0.0
55.6641 84.204 0.0
58.5938 84.33 0.0
60.0586 84.398 0.0
62.9883 84.509 0.0
64.4531 84.554 0.0
67.3828 84.655 0.0
68.8477 84.725 0.0
71.7773 84.898 0.0
74.707 85.096 0.0
77.6367 85.287 0.0
79.1016 85.394 0.0
82.0312 85.611 0.0
84.9609 85.823 0.0
87.8906 86.009 0.0
90.8203 86.199 0.0
95.2148 86.45 0.0
98.1445 86.585 0.0
101.074 86.716 0.0
105.469 86.871 0.0
108.398 86.944 0.0
112.793 87.031 0.0
117.188 87.085 0.0
120.117 87.109 0.0
124.512 87.144 0.0
128.906 87.141 0.0
133.301 87.063 0.0
139.16 86.906 0.0
143.555 86.835 0.0
147.949 86.791 0.0
300.0 82.5078 0.0
307.0 82.4752 0.0
315.0 82.4259 0.0
325.0 82.34949999999999 0.0
335.0 82.2588 0.0
345.0 82.1552 0.0
355.0 82.04039999999999 0.0
365.0 81.9166 0.0
375.0 81.7852 0.0
387.0 81.6193 0.0
400.0 81.4318 0.0
412.0 81.2528 0.0
425.0 81.0533 0.0
437.0 80.8641 0.0
450.0 80.6539 0.0
462.0 80.45519999999999 0.0
475.0 80.23509999999999 0.0
487.0 80.0286 0.0
500.0 79.8031 0.0
515.0 79.5447 0.0
530.0 79.2932 0.0
545.0 79.0546 0.0
560.0 78.8351 0.0
580.0 78.576 0.0
600.0 78.3544 0.0
615.0 78.2076 0.0
630.0 78.0692 0.0
650.0 77.87899999999999 0.0
670.0 77.6567 0.0
690.0 77.3749 0.0
710.0 77.0088 0.0
730.0 76.5413 0.0
750.0 75.9643 0.0
775.0 75.1184 0.0
800.0 74.2193 0.0
825.0 73.4134 0.0
850.0 72.8654 0.0
875.0 72.6528 0.0
900.0 72.7135 0.0
925.0 72.8911 0.0
950.0 73.0218 0.0
975.0 72.9931 0.0
1000.0 72.75 0.0
1030.0 72.1996 0.0
1060.0 71.49709999999999 0.0
1090.0 70.8737 0.0
1120.0 70.56739999999999 0.0
1150.0 70.6438 0.0
1180.0 70.9399 0.0
1220.0 71.2838 0.0
1250.0 71.276 0.0
1280.0 70.9524 0.0
1320.0 70.1369 0.0
1360.0 69.15289999999999 0.0
1400.0 68.3355 0.0
1450.0 67.6747 0.0
1500.0 66.924 0.0
1550.0 65.45609999999999 0.0
1600.0 63.3482 0.0
1650.0 62.0115 0.0
1700.0 62.6558 0.0
1750.0 64.3322 0.0
1800.0 65.67099999999999 0.0
1850.0 66.38149999999999 0.0
1900.0 66.6922 0.0
1950.0 66.7507 0.0
2000.0 66.60249999999999 0.0
2060.0 66.30709999999999 0.0
2120.0 66.1575 0.0
2180.0 66.1654 0.0
2240.0 65.9922 0.0
2300.0 65.4609 0.0
2360.0 64.8984 0.0
2430.0 64.53639999999999 0.0
2500.0 63.980399999999996 0.0
2580.0 62.553399999999996 0.0
2650.0 61.571 0.0
2720.0 61.6384 0.0
2800.0 62.170899999999996 0.0
2900.0 61.722899999999996 0.0
3000.0 60.5862 0.0
3070.0 60.5687 0.0
3150.0 61.269099999999995 0.0
3250.0 61.849 0.0
3350.0 62.3613 0.0
3450.0 63.421699999999994 0.0
3550.0 63.14169999999999 0.0
3650.0 61.753899999999994 0.0
3750.0 61.808699999999995 0.0
3870.0 63.353199999999994 0.0
4000.0 63.429199999999994 0.0
4120.0 63.389199999999995 0.0
4250.0 64.64789999999999 0.0
4370.0 65.45849999999999 0.0
4500.0 65.2789 0.0
4620.0 64.5238 0.0
4750.0 62.841899999999995 0.0
4870.0 61.8923 0.0
5000.0 61.9161 0.0
5150.0 61.6136 0.0
5300.0 61.0211 0.0
5450.0 61.232699999999994 0.0
5600.0 61.23159999999999 0.0
5800.0 60.610299999999995 0.0
6000.0 61.0106 0.0
6150.0 62.565799999999996 0.0
6300.0 63.9308 0.0
6500.0 64.3446 0.0
6700.0 64.9257 0.0
6900.0 65.131 0.0
7100.0 64.7339 0.0
7300.0 64.1235 0.0
7500.0 63.633799999999994 0.0
7750.0 63.040699999999994 0.0
8000.0 60.398399999999995 0.0
8250.0 58.934999999999995 0.0
8500.0 57.407799999999995 0.0
8750.0 53.381699999999995 0.0
9000.0 49.105799999999995 0.0
9250.0 46.36149999999999 0.0
9500.0 43.04769999999999 0.0
9750.0 42.6097 0.0
10000.0 45.963899999999995 0.0
10300.0 50.3938 0.0
10600.0 50.1217 0.0
10900.0 48.3428 0.0
11200.0 44.4088 0.0
11500.0 40.4914 0.0
11800.0 39.1294 0.0
12200.0 39.965199999999996 0.0
12500.0 41.22709999999999 0.0
12800.0 43.358 0.0
13200.0 46.047 0.0
13600.0 47.1763 0.0
14000.0 46.550799999999995 0.0
14500.0 45.4221 0.0
15000.0 47.0076 0.0
15500.0 46.125299999999996 0.0
16000.0 45.5929 0.0
16500.0 46.9265 0.0
17000.0 47.188199999999995 0.0
17500.0 46.9867 0.0
18000.0 47.062799999999996 0.0
18500.0 49.2161 0.0
19000.0 50.6949 0.0
19500.0 47.030199999999994 0.0
