Freq Spl Phase
20.5078 57.819 0.0
21.9727 59.823 0.0
23.4375 61.839 0.0
24.9023 63.108 0.0
26.3672 64.897 0.0
27.832 66.84 0.0
29.2969 68.694 0.0
30.7617 70.421 0.0
32.2266 72.14 0.0
33.6914 73.872 0.0
35.1562 75.485 0.0
36.6211 76.693 0.0
38.0859 77.992 0.0
39.5508 79.164 0.0
41.0156 80.239 0.0
42.4805 81.212 0.0
43.9453 82.046 0.0
45.4102 82.714 0.0
46.875 83.14 0.0
48.3398 83.512 0.0
51.2695 83.935 0.0
52.7344 84.049 0.0
54.1992 84.132 0.0
55.6641 84.204 0.0
58.5938 84.33 0.0
60.0586 84.398 0.0
62.9883 84.509 0.0
64.4531 84.554 0.0
67.3828 84.655 0.0
68.8477 84.725 0.0
71.7773 84.898 0.0
74.707 85.096 0.0
77.6367 85.287 0.0
79.1016 85.394 0.0
82.0312 85.611 0.0
84.9609 85.823 0.0
87.8906 86.009 0.0
90.8203 86.199 0.0
95.2148 86.45 0.0
98.1445 86.585 0.0
101.074 86.716 0.0
105.469 86.871 0.0
108.398 86.944 0.0
112.793 87.031 0.0
117.188 87.085 0.0
120.117 87.109 0.0
124.512 87.144 0.0
128.906 87.141 0.0
133.301 87.063 0.0
139.16 86.906 0.0
143.555 86.835 0.0
147.949 86.791 0.0
300.0 80.1686 0.0
307.0 80.11869999999999 0.0
315.0 80.0607 0.0
325.0 79.9879 0.0
335.0 79.9153 0.0
345.0 79.8427 0.0
355.0 79.7701 0.0
365.0 79.697 0.0
375.0 79.62299999999999 0.0
387.0 79.5324 0.0
400.0 79.43199999999999 0.0
412.0 79.3373 0.0
425.0 79.2333 0.0
437.0 79.1369 0.0
450.0 79.0337 0.0
462.0 78.9413 0.0
475.0 78.84649999999999 0.0
487.0 78.7661 0.0
500.0 78.6893 0.0
515.0 78.6164 0.0
530.0 78.5628 0.0
545.0 78.53049999999999 0.0
560.0 78.52019999999999 0.0
580.0 78.5359 0.0
600.0 78.5765 0.0
615.0 78.6168 0.0
630.0 78.6595 0.0
650.0 78.71019999999999 0.0
670.0 78.7434 0.0
690.0 78.75139999999999 0.0
710.0 78.72999999999999 0.0
730.0 78.679 0.0
750.0 78.60069999999999 0.0
775.0 78.4719 0.0
800.0 78.3166 0.0
825.0 78.1374 0.0
850.0 77.9332 0.0
875.0 77.701 0.0
900.0 77.43979999999999 0.0
925.0 77.15369999999999 0.0
950.0 76.85249999999999 0.0
975.0 76.5509 0.0
1000.0 76.2647 0.0
1030.0 75.9571 0.0
1060.0 75.69489999999999 0.0
1090.0 75.47139999999999 0.0
1120.0 75.26939999999999 0.0
1150.0 75.071 0.0
1180.0 74.8648 0.0
1220.0 74.5778 0.0
1250.0 74.3621 0.0
1280.0 74.15299999999999 0.0
1320.0 73.8896 0.0
1360.0 73.6455 0.0
1400.0 73.43799999999999 0.0
1450.0 73.2799 0.0
1500.0 73.2949 0.0
1550.0 73.4838 0.0
1600.0 73.76669999999999 0.0
1650.0 74.04159999999999 0.0
1700.0 74.2478 0.0
1750.0 74.37639999999999 0.0
1800.0 74.4362 0.0
1850.0 74.4315 0.0
1900.0 74.37809999999999 0.0
1950.0 74.32149999999999 0.0
2000.0 74.3112 0.0
2060.0 74.3557 0.0
2120.0 74.37979999999999 0.0
2180.0 74.32929999999999 0.0
2240.0 74.24959999999999 0.0
2300.0 74.2136 0.0
2360.0 74.22819999999999 0.0
2430.0 74.2674 0.0
2500.0 74.3316 0.0
2580.0 74.4539 0.0
2650.0 74.5713 0.0
2720.0 74.69739999999999 0.0
2800.0 74.8701 0.0
2900.0 75.0671 0.0
3000.0 75.17949999999999 0.0
3070.0 75.235 0.0
3150.0 75.1876 0.0
3250.0 74.8831 0.0
3350.0 74.43639999999999 0.0
3450.0 73.9658 0.0
3550.0 73.58619999999999 0.0
3650.0 73.3261 0.0
3750.0 73.0301 0.0
3870.0 72.5749 0.0
4000.0 72.2684 0.0
4120.0 72.2083 0.0
4250.0 72.09209999999999 0.0
4370.0 71.9008 0.0
4500.0 71.5877 0.0
4620.0 71.1611 0.0
4750.0 70.6448 0.0
4870.0 70.3657 0.0
5000.0 70.4488 0.0
5150.0 70.7701 0.0
5300.0 70.6823 0.0
5450.0 70.03139999999999 0.0
5600.0 69.17599999999999 0.0
5800.0 68.1883 0.0
6000.0 67.5104 0.0
6150.0 67.4285 0.0
6300.0 67.6339 0.0
6500.0 67.753 0.0
6700.0 67.20509999999999 0.0
6900.0 66.1617 0.0
7100.0 65.1394 0.0
7300.0 64.193 0.0
7500.0 63.053999999999995 0.0
7750.0 61.591899999999995 0.0
8000.0 60.95569999999999 0.0
8250.0 61.323699999999995 0.0
8500.0 61.560599999999994 0.0
8750.0 60.819199999999995 0.0
9000.0 59.4773 0.0
9250.0 58.665699999999994 0.0
9500.0 58.572399999999995 0.0
9750.0 58.6222 0.0
10000.0 58.3857 0.0
10300.0 57.6104 0.0
10600.0 56.5582 0.0
10900.0 54.907599999999995 0.0
11200.0 53.35039999999999 0.0
11500.0 52.222699999999996 0.0
11800.0 51.507299999999994 0.0
12200.0 50.695699999999995 0.0
12500.0 49.9818 0.0
12800.0 47.2247 0.0
13200.0 42.1063 0.0
13600.0 40.9725 0.0
14000.0 44.1306 0.0
14500.0 48.5417 0.0
15000.0 49.980999999999995 0.0
15500.0 51.201299999999996 0.0
16000.0 53.683 0.0
16500.0 56.0749 0.0
17000.0 57.723699999999994 0.0
17500.0 57.946999999999996 0.0
18000.0 56.992399999999996 0.0
18500.0 55.7219 0.0
19000.0 54.4409 0.0
19500.0 53.759699999999995 0.0
