Freq Spl Phase
20.5078 57.819 0.0
21.9727 59.823 0.0
23.4375 61.839 0.0
24.9023 63.108 0.0
26.3672 64.897 0.0
27.832 66.84 0.0
29.2969 68.694 0.0
30.7617 70.421 0.0
32.2266 72.14 0.0
33.6914 73.872 0.0
35.1562 75.485 0.0
36.6211 76.693 0.0
38.0859 77.992 0.0
39.5508 79.164 0.0
41.0156 80.239 0.0
42.4805 81.212 0.0
43.9453 82.046 0.0
45.4102 82.714 0.0
46.875 83.14 0.0
48.3398 83.512 0.0
51.2695 83.935 0.0
52.7344 84.049 0.0
54.1992 84.132 0.0
55.6641 84.204 0.0
58.5938 84.33 0.0
60.0586 84.398 0.0
62.9883 84.509 0.0
64.4531 84.554 0.0
67.3828 84.655 0.0
68.8477 84.725 0.0
71.7773 84.898 0.0
74.707 85.096 0.0
77.6367 85.287 0.0
79.1016 85.394 0.0
82.0312 85.611 0.0
84.9609 85.823 0.0
87.8906 86.009 0.0
90.8203 86.199 0.0
95.2148 86.45 0.0
98.1445 86.585 0.0
101.074 86.716 0.0
105.469 86.871 0.0
108.398 86.944 0.0
112.793 87.031 0.0
117.188 87.085 0.0
120.117 87.109 0.0
124.512 87.144 0.0
125.0 87.1481 0.0
128.0 87.2483 0.0
132.0 87.3772 0.0
136.0 87.5012 0.0
140.0 87.6207 0.0
145.0 87.7647 0.0
150.0 87.9036 0.0
155.0 88.0382 0.0
160.0 88.1691 0.0
165.0 88.2971 0.0
170.0 88.4228 0.0
175.0 88.5467 0.0
180.0 88.6691 0.0
185.0 88.7902 0.0
190.0 88.91 0.0
195.0 89.0287 0.0
200.0 89.14620000000001 0.0
206.0 89.2857 0.0
212.0 89.423 0.0
218.0 89.5578 0.0
224.0 89.6896 0.0
230.0 89.8179 0.0
236.0 89.9421 0.0
243.0 90.0812 0.0
250.0 90.2132 0.0
258.0 90.35470000000001 0.0
265.0 90.4693 0.0
272.0 90.5747 0.0
280.0 90.6836 0.0
290.0 90.8022 0.0
300.0 90.9021 0.0
307.0 90.9607 0.0
315.0 91.0159 0.0
325.0 91.0697 0.0
335.0 91.1084 0.0
345.0 91.1336 0.0
355.0 91.1478 0.0
365.0 91.1537 0.0
375.0 91.154 0.0
387.0 91.15050000000001 0.0
400.0 91.147 0.0
412.0 91.1479 0.0
425.0 91.1568 0.0
437.0 91.1745 0.0
450.0 91.205 0.0
462.0 91.2435 0.0
475.0 91.2957 0.0
487.0 91.35170000000001 0.0
500.0 91.4188 0.0
515.0 91.5009 0.0
530.0 91.5844 0.0
545.0 91.666 0.0
560.0 91.743 0.0
580.0 91.8363 0.0
600.0 91.9182 0.0
615.0 91.97240000000001 0.0
630.0 92.0207 0.0
650.0 92.0776 0.0
670.0 92.1255 0.0
690.0 92.1614 0.0
710.0 92.17960000000001 0.0
730.0 92.1723 0.0
750.0 92.13 0.0
775.0 92.0209 0.0
800.0 91.8473 0.0
825.0 91.6155 0.0
850.0 91.3439 0.0
875.0 91.0585 0.0
900.0 90.7867 0.0
925.0 90.5501 0.0
950.0 90.3599 0.0
975.0 90.2155 0.0
1000.0 90.1076 0.0
1030.0 90.0081 0.0
1060.0 89.927 0.0
1090.0 89.8637 0.0
1120.0 89.83030000000001 0.0
1150.0 89.843 0.0
1180.0 89.9121 0.0
1220.0 90.0739 0.0
1250.0 90.2179 0.0
1280.0 90.3555 0.0
1320.0 90.5051 0.0
1360.0 90.62910000000001 0.0
1400.0 90.7817 0.0
1450.0 91.0859 0.0
1500.0 91.5323 0.0
1550.0 92.053 0.0
1600.0 92.5553 0.0
1650.0 92.988 0.0
1700.0 93.3405 0.0
1750.0 93.61070000000001 0.0
1800.0 93.797 0.0
1850.0 93.9151 0.0
1900.0 93.9987 0.0
1950.0 94.0765 0.0
2000.0 94.1542 0.0
2060.0 94.2411 0.0
2120.0 94.3332 0.0
2180.0 94.4579 0.0
2240.0 94.61240000000001 0.0
2300.0 94.75750000000001 0.0
2360.0 94.8621 0.0
2430.0 94.9377 0.0
2500.0 94.9798 0.0
2580.0 94.9901 0.0
2650.0 94.9792 0.0
2720.0 94.9576 0.0
2800.0 94.8956 0.0
2900.0 94.746 0.0
3000.0 94.59440000000001 0.0
3070.0 94.52720000000001 0.0
3150.0 94.511 0.0
3250.0 94.5467 0.0
3350.0 94.5485 0.0
3450.0 94.4906 0.0
3550.0 94.4347 0.0
3650.0 94.4016 0.0
3750.0 94.3935 0.0
3870.0 94.41290000000001 0.0
4000.0 94.4211 0.0
4120.0 94.4175 0.0
4250.0 94.4577 0.0
4370.0 94.5479 0.0
4500.0 94.6521 0.0
4620.0 94.792 0.0
4750.0 94.9932 0.0
4870.0 95.1632 0.0
5000.0 95.3244 0.0
5150.0 95.4363 0.0
5300.0 95.3111 0.0
5450.0 95.0232 0.0
5600.0 94.8481 0.0
5800.0 94.984 0.0
6000.0 95.3098 0.0
6150.0 95.443 0.0
6300.0 95.4657 0.0
6500.0 95.4839 0.0
6700.0 95.497 0.0
6900.0 95.3533 0.0
7100.0 95.01950000000001 0.0
7300.0 94.6504 0.0
7500.0 94.3991 0.0
7750.0 94.2902 0.0
8000.0 94.29560000000001 0.0
8250.0 94.1447 0.0
8500.0 93.9423 0.0
8750.0 93.9077 0.0
9000.0 93.8199 0.0
9250.0 93.5967 0.0
9500.0 93.5994 0.0
9750.0 93.8276 0.0
10000.0 93.8957 0.0
10300.0 93.7688 0.0
10600.0 93.7263 0.0
10900.0 93.6743 0.0
11200.0 93.6123 0.0
11500.0 93.6951 0.0
11800.0 93.7482 0.0
12200.0 93.5518 0.0
12500.0 93.5025 0.0
12800.0 93.5176 0.0
13200.0 93.5549 0.0
13600.0 93.7706 0.0
14000.0 93.7229 0.0
14500.0 92.73910000000001 0.0
15000.0 91.1855 0.0
15500.0 89.8655 0.0
16000.0 88.7692 0.0
16500.0 87.9637 0.0
17000.0 88.6203 0.0
17500.0 90.605 0.0
18000.0 92.3144 0.0
18500.0 93.1819 0.0
19000.0 93.659 0.0
19500.0 94.0489 0.0
