Freq Spl Phase
20.5078 57.819 0.0
21.9727 59.823 0.0
23.4375 61.839 0.0
24.9023 63.108 0.0
26.3672 64.897 0.0
27.832 66.84 0.0
29.2969 68.694 0.0
30.7617 70.421 0.0
32.2266 72.14 0.0
33.6914 73.872 0.0
35.1562 75.485 0.0
36.6211 76.693 0.0
38.0859 77.992 0.0
39.5508 79.164 0.0
41.0156 80.239 0.0
42.4805 81.212 0.0
43.9453 82.046 0.0
45.4102 82.714 0.0
46.875 83.14 0.0
48.3398 83.512 0.0
51.2695 83.935 0.0
52.7344 84.049 0.0
54.1992 84.132 0.0
55.6641 84.204 0.0
58.5938 84.33 0.0
60.0586 84.398 0.0
62.9883 84.509 0.0
64.4531 84.554 0.0
67.3828 84.655 0.0
68.8477 84.725 0.0
71.7773 84.898 0.0
74.707 85.096 0.0
77.6367 85.287 0.0
79.1016 85.394 0.0
82.0312 85.611 0.0
84.9609 85.823 0.0
87.8906 86.009 0.0
90.8203 86.199 0.0
95.2148 86.45 0.0
98.1445 86.585 0.0
101.074 86.716 0.0
105.469 86.871 0.0
108.398 86.944 0.0
112.793 87.031 0.0
117.188 87.085 0.0
120.117 87.109 0.0
124.512 87.144 0.0
128.906 87.141 0.0
133.301 87.063 0.0
139.16 86.906 0.0
143.555 86.835 0.0
147.949 86.791 0.0
300.0 79.6578 0.0
307.0 79.6796 0.0
315.0 79.71109999999999 0.0
325.0 79.7559 0.0
335.0 79.8015 0.0
345.0 79.84209999999999 0.0
355.0 79.8723 0.0
365.0 79.8881 0.0
375.0 79.8854 0.0
387.0 79.85499999999999 0.0
400.0 79.7889 0.0
412.0 79.6985 0.0
425.0 79.5732 0.0
437.0 79.4387 0.0
450.0 79.2808 0.0
462.0 79.13319999999999 0.0
475.0 78.9812 0.0
487.0 78.8569 0.0
500.0 78.7476 0.0
515.0 78.6586 0.0
530.0 78.60919999999999 0.0
545.0 78.5933 0.0
560.0 78.59889999999999 0.0
580.0 78.6134 0.0
600.0 78.60579999999999 0.0
615.0 78.5693 0.0
630.0 78.4959 0.0
650.0 78.3424 0.0
670.0 78.1345 0.0
690.0 77.8889 0.0
710.0 77.6291 0.0
730.0 77.3753 0.0
750.0 77.1377 0.0
775.0 76.8564 0.0
800.0 76.5618 0.0
825.0 76.2149 0.0
850.0 75.7884 0.0
875.0 75.2815 0.0
900.0 74.7225 0.0
925.0 74.1621 0.0
950.0 73.6593 0.0
975.0 73.2604 0.0
1000.0 72.985 0.0
1030.0 72.79419999999999 0.0
1060.0 72.6999 0.0
1090.0 72.6465 0.0
1120.0 72.6005 0.0
1150.0 72.5636 0.0
1180.0 72.56309999999999 0.0
1220.0 72.6395 0.0
1250.0 72.7323 0.0
1280.0 72.8093 0.0
1320.0 72.8255 0.0
1360.0 72.7442 0.0
1400.0 72.6498 0.0
1450.0 72.6377 0.0
1500.0 72.7332 0.0
1550.0 72.79079999999999 0.0
1600.0 72.7567 0.0
1650.0 72.7492 0.0
1700.0 72.8595 0.0
1750.0 72.9733 0.0
1800.0 72.8835 0.0
1850.0 72.5337 0.0
1900.0 72.0706 0.0
1950.0 71.6571 0.0
2000.0 71.3035 0.0
2060.0 70.85409999999999 0.0
2120.0 70.38419999999999 0.0
2180.0 70.02019999999999 0.0
2240.0 69.7278 0.0
2300.0 69.31209999999999 0.0
2360.0 68.7533 0.0
2430.0 68.2772 0.0
2500.0 68.3663 0.0
2580.0 69.01849999999999 0.0
2650.0 69.72989999999999 0.0
2720.0 70.441 0.0
2800.0 71.1395 0.0
2900.0 71.6894 0.0
3000.0 71.8879 0.0
3070.0 71.8759 0.0
3150.0 71.7173 0.0
3250.0 71.18039999999999 0.0
3350.0 70.2442 0.0
3450.0 68.9512 0.0
3550.0 67.0686 0.0
3650.0 64.90379999999999 0.0
3750.0 62.21619999999999 0.0
3870.0 57.965599999999995 0.0
4000.0 53.91289999999999 0.0
4120.0 53.8018 0.0
4250.0 58.056799999999996 0.0
4370.0 61.4573 0.0
4500.0 63.3343 0.0
4620.0 64.2761 0.0
4750.0 64.7655 0.0
4870.0 65.04679999999999 0.0
5000.0 65.31909999999999 0.0
5150.0 65.637 0.0
5300.0 65.8407 0.0
5450.0 65.9742 0.0
5600.0 65.8701 0.0
5800.0 65.70849999999999 0.0
6000.0 65.66569999999999 0.0
6150.0 65.40090000000001 0.0
6300.0 64.79429999999999 0.0
6500.0 63.30009999999999 0.0
6700.0 60.0809 0.0
6900.0 54.79259999999999 0.0
7100.0 53.2641 0.0
7300.0 58.1005 0.0
7500.0 63.055499999999995 0.0
7750.0 64.8007 0.0
8000.0 64.4773 0.0
8250.0 63.4353 0.0
8500.0 62.302899999999994 0.0
8750.0 60.451499999999996 0.0
9000.0 56.98609999999999 0.0
9250.0 53.5136 0.0
9500.0 53.25429999999999 0.0
9750.0 55.508399999999995 0.0
10000.0 57.2073 0.0
10300.0 57.47539999999999 0.0
10600.0 56.5381 0.0
10900.0 54.388999999999996 0.0
11200.0 50.7898 0.0
11500.0 46.0133 0.0
11800.0 43.9688 0.0
12200.0 47.3626 0.0
12500.0 49.426899999999996 0.0
12800.0 49.335899999999995 0.0
13200.0 47.211 0.0
13600.0 42.224199999999996 0.0
14000.0 38.998799999999996 0.0
14500.0 42.701899999999995 0.0
15000.0 43.254599999999996 0.0
15500.0 36.7919 0.0
16000.0 29.947699999999998 0.0
16500.0 33.724999999999994 0.0
17000.0 38.57769999999999 0.0
17500.0 40.433099999999996 0.0
18000.0 43.26689999999999 0.0
18500.0 45.6399 0.0
19000.0 44.6994 0.0
19500.0 39.994699999999995 0.0
