Freq Spl Phase
20.5078 47.666145 0.0
21.9727 48.476147 0.0
23.4375 49.161148 0.0
24.9023 49.741146 0.0
26.3672 50.305145 0.0
27.832 50.852146 0.0
29.2969 51.366146 0.0
30.7617 51.778145 0.0
32.2266 52.259148 0.0
33.6914 52.751144 0.0
35.1562 53.238144 0.0
36.6211 53.673149 0.0
38.0859 54.074142 0.0
39.5508 54.465149 0.0
41.0156 54.786148 0.0
42.4805 55.164146 0.0
43.9453 55.535149 0.0
45.4102 55.900146 0.0
46.875 56.261147 0.0
48.3398 56.619148 0.0
51.2695 57.277145 0.0
52.7344 57.637146 0.0
54.1992 57.985146 0.0
55.6641 58.339149 0.0
58.5938 59.040146 0.0
60.0586 59.375145 0.0
62.9883 59.937149 0.0
64.4531 60.207146 0.0
67.3828 60.697144 0.0
68.8477 60.941147 0.0
71.7773 61.406143 0.0
74.707 61.930145 0.0
77.6367 62.448143 0.0
79.1016 62.703148 0.0
82.0312 63.15815 0.0
84.9609 63.631149 0.0
87.8906 64.082146 0.0
90.8203 64.503143 0.0
95.2148 65.053146 0.0
98.1445 65.409149 0.0
101.074 65.734146 0.0
105.469 66.129143 0.0
108.398 66.364143 0.0
112.793 66.664146 0.0
117.188 66.929146 0.0
120.117 67.115143 0.0
124.512 67.372147 0.0
128.906 67.622147 0.0
133.301 67.823143 0.0
139.16 67.987144 0.0
143.555 68.103149 0.0
147.949 68.215149 0.0
153.809 68.371147 0.0
159.668 68.490143 0.0
165.527 68.552147 0.0
171.387 68.520149 0.0
177.246 68.439148 0.0
183.105 68.414146 0.0
188.965 68.480148 0.0
196.289 68.490143 0.0
203.613 68.430145 0.0
210.938 68.447144 0.0
218.262 68.444145 0.0
225.586 68.383148 0.0
232.91 68.388145 0.0
241.699 68.393143 0.0
250.488 68.35215 0.0
259.277 68.349144 0.0
268.066 68.417145 0.0
276.855 68.508148 0.0
287.109 68.497147 0.0
297.363 68.371147 0.0
400.0 66.7464 0.0
412.0 66.6736 0.0
425.0 66.6027 0.0
437.0 66.5468 0.0
450.0 66.4979 0.0
462.0 66.4642 0.0
475.0 66.4394 0.0
487.0 66.4263 0.0
500.0 66.4203 0.0
515.0 66.4203 0.0
530.0 66.4226 0.0
545.0 66.4221 0.0
560.0 66.4132 0.0
580.0 66.3813 0.0
600.0 66.3176 0.0
615.0 66.2467 0.0
630.0 66.1534 0.0
650.0 65.9962 0.0
670.0 65.8019 0.0
690.0 65.5756 0.0
710.0 65.3226 0.0
730.0 65.0488 0.0
750.0 64.761 0.0
775.0 64.3895 0.0
800.0 64.0142 0.0
825.0 63.641400000000004 0.0
850.0 63.2745 0.0
875.0 62.912400000000005 0.0
900.0 62.55500000000001 0.0
925.0 62.2033 0.0
950.0 61.8625 0.0
975.0 61.5441 0.0
1000.0 61.2646 0.0
1030.0 61.0073 0.0
1060.0 60.8582 0.0
1090.0 60.8196 0.0
1120.0 60.8642 0.0
1150.0 60.9439 0.0
1180.0 61.0095 0.0
1220.0 61.0137 0.0
1250.0 60.9332 0.0
1280.0 60.7831 0.0
1320.0 60.503 0.0
1360.0 60.1852 0.0
1400.0 59.8841 0.0
1450.0 59.5564 0.0
1500.0 59.2242 0.0
1550.0 58.7864 0.0
1600.0 58.1856 0.0
1650.0 57.4471 0.0
1700.0 56.6448 0.0
1750.0 55.7962 0.0
1800.0 54.8022 0.0
1850.0 53.5266 0.0
1900.0 52.0424 0.0
1950.0 51.0032 0.0
2000.0 51.3472 0.0
2060.0 53.2281 0.0
2120.0 55.3312 0.0
2180.0 56.9678 0.0
2240.0 57.9754 0.0
2300.0 58.4622 0.0
2360.0 58.6835 0.0
2430.0 58.8957 0.0
2500.0 59.0658 0.0
2580.0 58.9915 0.0
2650.0 58.7508 0.0
2720.0 58.5991 0.0
2800.0 58.5648 0.0
2900.0 58.3143 0.0
3000.0 57.7954 0.0
3070.0 57.4123 0.0
3150.0 57.0071 0.0
3250.0 56.3435 0.0
3350.0 55.3006 0.0
3450.0 54.93 0.0
3550.0 54.858 0.0
3650.0 55.7497 0.0
3750.0 58.8598 0.0
3870.0 61.0163 0.0
4000.0 61.3149 0.0
4120.0 61.0382 0.0
4250.0 60.1804 0.0
4370.0 59.4819 0.0
4500.0 59.6286 0.0
4620.0 59.6521 0.0
4750.0 60.068 0.0
4870.0 59.9108 0.0
5000.0 59.7581 0.0
5150.0 59.6503 0.0
5300.0 59.4101 0.0
5450.0 58.7716 0.0
5600.0 58.1613 0.0
5800.0 58.1125 0.0
6000.0 58.4776 0.0
6150.0 59.0268 0.0
6300.0 59.1606 0.0
6500.0 58.666 0.0
6700.0 57.9269 0.0
6900.0 57.9665 0.0
7100.0 58.1156 0.0
7300.0 57.1361 0.0
7500.0 57.2331 0.0
7750.0 56.9675 0.0
8000.0 56.9225 0.0
8250.0 56.7967 0.0
8500.0 55.7554 0.0
8750.0 55.5781 0.0
9000.0 55.0095 0.0
9250.0 52.6034 0.0
9500.0 51.0058 0.0
9750.0 50.7704 0.0
10000.0 51.341 0.0
10300.0 51.8804 0.0
10600.0 51.5978 0.0
10900.0 49.9676 0.0
11200.0 47.5972 0.0
11500.0 46.1883 0.0
11800.0 47.3116 0.0
12200.0 44.8313 0.0
12500.0 45.2465 0.0
12800.0 45.24 0.0
13200.0 42.0535 0.0
13600.0 39.1537 0.0
14000.0 34.5523 0.0
14500.0 36.5858 0.0
15000.0 38.5102 0.0
15500.0 45.5754 0.0
16000.0 49.849 0.0
16500.0 49.0343 0.0
17000.0 48.4229 0.0
17500.0 48.0282 0.0
18000.0 47.8344 0.0
18500.0 46.3216 0.0
19000.0 46.2326 0.0
19500.0 45.7961 0.0
