Frequency Spectrum for Input Signal

Data Shown:    V2-26 (Community)
Display Parameters:   Frequency: 1000Hz (1/24th Octave)   Mer: 270°  Par: 110°

Freq [Hz]	Signal Level [dBSPL]
22.4	52.2
23	52.7
23.6	53.1
24	53.8
25	54.4
25.8	55
26.5	55.5
27.2	56
28	56.5
29	57
30	57.6
30.7	58.2
31.5	58.8
32.5	59.4
33.5	59.9
34.5	60.4
35.5	60.9
36.5	61.6
37.5	62.2
38.7	62.8
40	63.4
41.2	63.9
42.5	64.5
43.7	65.2
45	65.8
46.2	66.3
47.5	66.9
48.7	67.5
50	68.1
51.5	68.7
53	69.2
54.5	69.8
56	70.4
58	70.9
60	71.4
61.5	72
63	72.6
65	73
67	73.6
69	74.2
71	74.7
73	75.2
75	75.7
77.5	76.2
80	76.7
82.5	77.2
85	77.7
87.5	78.1
90	78.6
92.5	79.1
95	79.5
97.5	79.9
100	80.3
103	80.7
106	81.1
109	81.4
112	81.8
115	82.1
118	82.4
122	82.6
125	82.8
128	83
132	83.2
136	83.2
140	83.3
145	83.3
150	83.2
155	83.1
160	83
165	82.8
170	82.5
175	82.3
180	82.1
185	81.9
190	81.9
195	82
200	82.1
206	82.3
212	82.6
218	82.8
224	82.9
230	82.9
236	82.7
240	82.3
250	81.8
258	81.2
265	80.7
272	80.3
280	80.2
290	80.3
300	80.4
307	80.6
315	80.6
325	80.5
335	80.2
345	79.9
355	79.4
365	78.9
375	78.4
387	77.8
400	77.1
412	76.5
425	76.2
437	76.2
450	76.4
462	76.7
475	76.6
487	76
500	75
515	73.8
530	72.9
545	72.3
560	72.3
580	73.1
600	74.3
615	75.4
630	75.8
650	75.7
670	75.2
690	75
710	75
730	75.1
750	74.9
775	74.1
800	72.9
825	71.3
850	67.6
875	60.8
900	53.8
925	58.4
950	61
975	60.6
1000	58.9
1030	59.1
1060	60.6
1090	60.6
1120	60.6
1150	61.9
1180	62.7
1220	62.7
1250	62.7
1280	62.9
1320	63.7
1360	64.7
1400	65.3
1450	66.2
1500	67.9
1550	70
1600	71.6
1650	72
1700	71.8
1750	72.6
1800	73.8
1850	75.3
1900	74.3
1950	71.4
2000	68.9
2060	69.8
2120	70
2180	68.2
2240	68.9
2300	70.2
2360	70
2400	68.5
2500	67.5
2580	67.9
2650	66.1
2720	64.2
2800	65.4
2900	63.9
3000	63.8
3070	64.6
3150	64.7
3250	59.4
3350	61.1
3450	64.5
3550	64.5
3650	62.2
3750	56.5
3870	61.3
4000	63.4
4120	63
4250	63.6
4370	62.6
4500	62.4
4620	63
4750	60.7
4870	62.1
5000	59
5150	64.2
5300	64.1
5450	61.1
5600	63.2
5800	65.7
6000	65.4
6150	62.3
6300	66.2
6500	60.6
6700	59.4
6900	63.5
7100	61.6
7300	62.5
7500	65
7750	65.2
8000	61.5
8250	53.7
8500	50.3
8750	53.7
9000	51.7
9250	64.6
9500	61.9
9750	60.4
10000	59.8
10300	57.6
10600	58.2
10900	60.5
11200	64.7
11500	56.7
11800	55.5
12200	55.9
12500	49
12800	52.2
13200	52.1
13600	44
14000	44
14500	43.2
15000	40.4
15500	49
16000	47.1
16500	44.4
17000	36.2
17500	39
18000	38.2
18500	30.3
19000	29.8
19500	35.3
20000	41.3
20600	48.2
21200	52.3
21800	55.7
22400	61.9
