Freq[Hz]     dBSPL  Phase[Deg]
2.0507813e+01 5.3537216e+01 -1.6937854e+02 
2.1972656e+01 5.4483444e+01 -1.7434502e+02 
2.3437500e+01 5.6510849e+01 -1.6424020e+02 
2.4902344e+01 5.8069422e+01 -1.6373076e+02 
2.6367188e+01 5.8750098e+01 -1.6595016e+02 
2.7832031e+01 6.1166682e+01 -1.5853915e+02 
2.9296875e+01 6.2496526e+01 -1.5920299e+02 
3.0761719e+01 6.4089381e+01 -1.6028030e+02 
3.2226563e+01 6.5643412e+01 -1.6031572e+02 
3.3691406e+01 6.7046737e+01 -1.6260981e+02 
3.5156250e+01 6.8382773e+01 -1.6462617e+02 
3.6621094e+01 6.9673891e+01 -1.6722099e+02 
3.8085938e+01 7.0791494e+01 -1.7052784e+02 
3.9550781e+01 7.1764334e+01 -1.7358349e+02 
4.1015625e+01 7.2656185e+01 -1.7684409e+02 
4.2480469e+01 7.3580079e+01 1.7984298e+02 
4.3945313e+01 7.4399435e+01 1.7654056e+02 
4.5410156e+01 7.5167673e+01 1.7330391e+02 
4.6875000e+01 7.5913009e+01 1.6970332e+02 
4.8339844e+01 7.6560371e+01 1.6611199e+02 
5.1269531e+01 7.7849518e+01 1.5900279e+02 
5.2734375e+01 7.8463821e+01 1.5557740e+02 
5.4199219e+01 7.9021027e+01 1.5213587e+02 
5.5664063e+01 7.9543961e+01 1.4852382e+02 
5.8593750e+01 8.0494426e+01 1.4131916e+02 
6.0058594e+01 8.0917745e+01 1.3742741e+02 
6.2988281e+01 8.1790516e+01 1.2946614e+02 
6.4453125e+01 8.2172787e+01 1.2569828e+02 
6.7382813e+01 8.2798816e+01 1.1854366e+02 
6.8847656e+01 8.3013106e+01 1.1495740e+02 
7.1777344e+01 8.3390041e+01 1.0648586e+02 
7.4707031e+01 8.3773286e+01 9.8735298e+01 
7.7636719e+01 8.3991105e+01 9.2432394e+01 
7.9101563e+01 8.3966404e+01 8.9165501e+01 
8.2031250e+01 8.3950846e+01 8.2077136e+01 
8.4960938e+01 8.4002818e+01 7.6150033e+01 
8.7890625e+01 8.3934855e+01 7.1376549e+01 
9.0820313e+01 8.3834629e+01 6.6238422e+01 
9.5214844e+01 8.3825489e+01 6.0310665e+01 
9.8144531e+01 8.3672852e+01 5.6657665e+01 
1.0107422e+02 8.3680432e+01 5.2778900e+01 
1.0546875e+02 8.3500392e+01 4.8170224e+01 
1.0839844e+02 8.3395634e+01 4.4974244e+01 
1.1279297e+02 8.3260323e+01 4.1698381e+01 
1.1718750e+02 8.3152436e+01 3.7536779e+01 
1.2011719e+02 8.2981271e+01 3.5426674e+01 
1.2451172e+02 8.2816325e+01 3.2705207e+01 
1.2890625e+02 8.2730408e+01 3.0278696e+01 
1.3330078e+02 8.2633683e+01 2.8287634e+01 
1.3916016e+02 8.2665657e+01 2.5153342e+01 
1.4355469e+02 8.2504573e+01 2.2405984e+01 
1.4794922e+02 8.2310563e+01 2.0714642e+01 
1.5380859e+02 8.2129918e+01 1.9911377e+01 
1.5966797e+02 8.2338543e+01 1.8566755e+01 
1.6552734e+02 8.2279920e+01 1.5486991e+01 
1.7138672e+02 8.2280539e+01 1.3890150e+01 
1.7724609e+02 8.2144367e+01 1.0548725e+01 
1.8310547e+02 8.1844156e+01 9.4664967e+00 
1.8896484e+02 8.1670402e+01 9.9769002e+00 
1.9628906e+02 8.2104386e+01 9.5120481e+00 
2.0361328e+02 8.2055411e+01 4.9144867e+00 
2.1093750e+02 8.1707801e+01 3.4070425e+00 
2.1826172e+02 8.1508706e+01 3.5606729e+00 
2.2558594e+02 8.1435322e+01 2.9376592e+00 
2.3291016e+02 8.1774966e+01 5.0754763e+00 
2.4169922e+02 8.1784487e+01 -1.0881495e+00 
2.5048828e+02 8.1652266e+01 1.1197042e+00 
2.5927734e+02 8.2025923e+01 -1.8581746e+00 
2.6806641e+02 8.2018819e+01 -5.7190458e+00 
2.7685547e+02 8.0990171e+01 -8.4407542e+00 
2.8710938e+02 8.0738254e+01 -1.9388324e+00 
2.9736328e+02 8.1164502e+01 -1.6957951e+00 
3.0761719e+02 8.0877876e+01 -2.9998479e+00 
3.1933594e+02 8.1415375e+01 -2.3393795e+00 
3.2958984e+02 8.1284423e+01 -2.8064903e+00 
3.4130859e+02 8.1619093e+01 -5.5713437e+00 
3.5302734e+02 8.1604608e+01 -8.2624660e+00 
3.6621094e+02 8.1225264e+01 -1.1318438e+01 
3.7939453e+02 8.1441786e+01 -4.8923539e+00 
3.9257813e+02 8.2613591e+01 -1.2321672e+01 
4.0576172e+02 8.2563406e+01 -1.6926640e+01 
4.2041016e+02 8.2123721e+01 -2.0713927e+01 
4.3505859e+02 8.2258441e+01 -2.1460485e+01 
4.5117188e+02 8.2318629e+01 -2.7695023e+01 
4.6582031e+02 8.1593075e+01 -2.5812388e+01 
4.8339844e+02 8.2711125e+01 -3.2225609e+01 
4.9951172e+02 8.1949775e+01 -3.3328987e+01 
5.1708984e+02 8.1774209e+01 -3.7420518e+01 
5.3613281e+02 8.1692019e+01 -4.0007186e+01 
5.5517578e+02 8.1523781e+01 -3.9320651e+01 
5.7421875e+02 8.1349460e+01 -3.8048592e+01 
5.9472656e+02 8.2333659e+01 -4.5057881e+01 
6.1523438e+02 8.1955863e+01 -4.9757760e+01 
6.3720703e+02 8.1460263e+01 -5.4161849e+01 
6.5917969e+02 8.1096226e+01 -5.4664927e+01 
6.8261719e+02 8.0691341e+01 -5.6736743e+01 
7.0751953e+02 8.0929385e+01 -5.8111628e+01 
7.3242188e+02 8.0263426e+01 -5.8280381e+01 
7.5732422e+02 8.1504348e+01 -6.2449326e+01 
7.8515625e+02 8.0389704e+01 -6.6207991e+01 
8.1152344e+02 8.1016231e+01 -7.0889103e+01 
8.4082031e+02 8.0292874e+01 -7.5354317e+01 
8.7011719e+02 8.0032336e+01 -7.6539314e+01 
9.0087891e+02 7.9856766e+01 -7.2646347e+01 
9.3310547e+02 8.0001671e+01 -7.0206641e+01 
9.6533203e+02 8.0423520e+01 -6.9371250e+01 
1.0004883e+03 8.0762371e+01 -7.3311516e+01 
1.0356445e+03 8.0549940e+01 -7.6650424e+01 
1.0722656e+03 8.0153132e+01 -8.0002347e+01 
1.1088867e+03 8.0651479e+01 -8.4279155e+01 
1.1484375e+03 8.0604842e+01 -9.0228701e+01 
1.1894531e+03 8.0686176e+01 -9.8095331e+01 
1.2304688e+03 7.9927286e+01 -1.0461699e+02 
1.2744141e+03 7.8944707e+01 -1.0409381e+02 
1.3198242e+03 7.8935315e+01 -1.0422472e+02 
1.3666992e+03 7.9152557e+01 -1.0650621e+02 
1.4135742e+03 7.8930760e+01 -1.0863610e+02 
1.4633789e+03 7.9486786e+01 -1.1243639e+02 
1.5161133e+03 7.9203071e+01 -1.2021340e+02 
1.5688477e+03 7.8257981e+01 -1.2326913e+02 
1.6245117e+03 7.9309433e+01 -1.1925654e+02 
1.6816406e+03 8.0330657e+01 -1.2563023e+02 
1.7416992e+03 7.9790128e+01 -1.2980133e+02 
1.8032227e+03 8.0308000e+01 -1.4049843e+02 
1.8662109e+03 7.8198514e+01 -1.4070251e+02 
1.9321289e+03 7.9785630e+01 -1.4692738e+02 
1.9995117e+03 7.9692884e+01 -1.4888456e+02 
2.0698242e+03 7.9511665e+01 -1.5857356e+02 
2.1430664e+03 8.0333403e+01 -1.6355837e+02 
2.2192383e+03 7.9114294e+01 -1.7364835e+02 
2.2968750e+03 8.0068583e+01 -1.6344984e+02 
2.3789063e+03 8.0048036e+01 -1.7495271e+02 
2.4624023e+03 8.0297103e+01 1.7390210e+02 
2.5488281e+03 8.0721075e+01 1.6733860e+02 
2.6396484e+03 8.0012196e+01 1.5985557e+02 
2.7319336e+03 8.0322321e+01 1.5465850e+02 
2.8286133e+03 8.0358698e+01 1.4641971e+02 
2.9282227e+03 7.9724617e+01 1.3561572e+02 
3.0307617e+03 7.8145263e+01 1.3872946e+02 
3.1376953e+03 7.9504522e+01 1.4096614e+02 
3.2490234e+03 7.9994999e+01 1.3382711e+02 
3.3632813e+03 8.0273343e+01 1.3044865e+02 
3.4819336e+03 8.1405361e+01 1.2496870e+02 
3.6049805e+03 8.1808473e+01 1.1398446e+02 
3.7324219e+03 8.1803118e+01 1.0367682e+02 
3.8642578e+03 8.1424568e+01 9.9874690e+01 
4.0004883e+03 8.1798568e+01 8.9948696e+01 
4.1411133e+03 8.1149952e+01 8.8089519e+01 
4.2875977e+03 8.1511203e+01 8.1877743e+01 
4.4384766e+03 8.2138666e+01 8.0905900e+01 
4.5952148e+03 8.2357315e+01 6.8071799e+01 
4.7563477e+03 8.2583829e+01 6.4717455e+01 
4.9248047e+03 8.2445419e+01 5.5216789e+01 
5.0976563e+03 8.2662539e+01 4.7909068e+01 
5.2778320e+03 8.2695493e+01 4.1895651e+01 
5.4638672e+03 8.2010221e+01 3.3045569e+01 
5.6572266e+03 8.2443198e+01 2.6857174e+01 
5.8564453e+03 8.1911941e+01 2.2848266e+01 
6.0629883e+03 8.1948574e+01 1.6948812e+01 
6.2768555e+03 8.1802918e+01 9.5060493e+00 
6.4980469e+03 8.2270941e+01 3.9954621e+00 
6.7265625e+03 8.1865298e+01 -6.0894804e-01 
6.9638672e+03 8.2115221e+01 -9.5775227e+00 
7.2099609e+03 8.2337789e+01 -1.5356780e+01 
7.4648438e+03 8.2002361e+01 -2.3716186e+01 
7.7270508e+03 8.2249541e+01 -3.3501606e+01 
7.9995117e+03 8.1999502e+01 -4.0024774e+01 
8.2822266e+03 8.1392711e+01 -4.4974803e+01 
8.5737305e+03 8.1332584e+01 -4.9572532e+01 
8.8769531e+03 8.1891373e+01 -5.4554872e+01 
9.1889648e+03 8.2151029e+01 -6.2658363e+01 
9.5141602e+03 8.2042435e+01 -7.1309640e+01 
9.8496094e+03 8.1692189e+01 -7.9818883e+01 
1.0196777e+04 8.1302280e+01 -8.6225703e+01 
1.0555664e+04 8.0940470e+01 -9.1437679e+01 
1.0927734e+04 8.0763894e+01 -9.6367949e+01 
1.1312988e+04 8.0482372e+01 -1.0231409e+02 
1.1712891e+04 7.9976077e+01 -1.0669667e+02 
1.2125977e+04 7.9720311e+01 -1.1005186e+02 
1.2553711e+04 7.9605245e+01 -1.1341513e+02 
1.2996094e+04 7.9863205e+01 -1.1826017e+02 
1.3454590e+04 8.0036844e+01 -1.2617210e+02 
1.3929199e+04 7.9991160e+01 -1.3521810e+02 
1.4419922e+04 7.9703446e+01 -1.4401401e+02 
1.4928223e+04 7.9480529e+01 -1.5161456e+02 
1.5455566e+04 7.9551559e+01 -1.5927606e+02 
1.6000488e+04 7.9615124e+01 -1.6798963e+02 
1.6564453e+04 7.9807773e+01 -1.7707834e+02 
1.7148926e+04 7.9720787e+01 1.7302923e+02 
1.7752441e+04 7.9656943e+01 1.6577697e+02 
1.8379395e+04 7.9764754e+01 1.5775766e+02 
1.9026855e+04 7.9962052e+01 1.4848848e+02 
1.9697754e+04 7.9927748e+01 1.3771566e+02 
1.9999512e+04 7.9973985e+01 1.3319233e+02 
