Param_Coord_x1 = 2
Param_Coord_x2 = 210
Param_Coord_x3 = 90
Param_Coord_Type = Spherical
Param_Coord_AngularFormat = degree
Param_Coord_Front = '0,0'
Param_Coord_Top = '90,0'
Data_Domain=Frequency
Data_Phase_AngularFormat=degree
Data_Format = LeveldB_Phase
Data_LevelType=SoundPressure

Curve=[
2.0600000e+01 5.9818903e+01 -6.7182438e+00
2.1200000e+01 6.0780987e+01 -7.6258656e+00
2.1800000e+01 6.1716219e+01 -8.5085019e+00
2.2400000e+01 6.2436664e+01 -1.0253926e+01
2.3000000e+01 6.3062550e+01 -1.2306974e+01
2.3600000e+01 6.3776114e+01 -1.4498304e+01
2.4300000e+01 6.4907317e+01 -1.7576617e+01
2.5000000e+01 6.5903773e+01 -2.0938275e+01
2.5800000e+01 6.6296911e+01 -2.7237140e+01
2.6500000e+01 6.6678100e+01 -3.2300325e+01
2.7200000e+01 6.7247750e+01 -3.6007181e+01
2.8000000e+01 6.7885074e+01 -4.0323097e+01
2.9000000e+01 6.8674978e+01 -4.6445596e+01
3.0000000e+01 6.9519510e+01 -5.3438186e+01
3.0700000e+01 7.0117882e+01 -5.8510743e+01
3.1500000e+01 7.0431563e+01 -6.2335558e+01
3.2500000e+01 7.0890526e+01 -6.7406405e+01
3.3500000e+01 7.1634632e+01 -7.3926332e+01
3.4500000e+01 7.2329014e+01 -8.0425460e+01
3.5500000e+01 7.2996387e+01 -8.6831937e+01
3.6500000e+01 7.3643957e+01 -9.3160248e+01
3.7500000e+01 7.4244637e+01 -9.9441403e+01
3.8700000e+01 7.4947866e+01 -1.0683786e+02
4.0000000e+01 7.5682855e+01 -1.1487493e+02
4.1200000e+01 7.6313104e+01 -1.2238249e+02
4.2500000e+01 7.6923533e+01 -1.2989467e+02
4.3700000e+01 7.7434798e+01 -1.3662523e+02
4.5000000e+01 7.7935550e+01 -1.4365297e+02
4.6200000e+01 7.8347959e+01 -1.4985754e+02
4.7500000e+01 7.8752619e+01 -1.5633662e+02
4.8700000e+01 7.9098298e+01 -1.6216380e+02
5.0000000e+01 7.9452436e+01 -1.6835124e+02
5.1500000e+01 7.9850049e+01 -1.7520829e+02
5.3000000e+01 8.0225956e+01 1.7863806e+02
5.4500000e+01 8.0529253e+01 1.7280880e+02
5.6000000e+01 8.0763062e+01 1.6707654e+02
5.8000000e+01 8.0939538e+01 1.5981976e+02
6.0000000e+01 8.1149383e+01 1.5239775e+02
6.1500000e+01 8.1365681e+01 1.4719592e+02
6.3000000e+01 8.1578293e+01 1.4213694e+02
6.5000000e+01 8.1733990e+01 1.3637878e+02
6.7000000e+01 8.1800559e+01 1.3078300e+02
6.9000000e+01 8.1822831e+01 1.2441527e+02
7.1000000e+01 8.2038076e+01 1.1797763e+02
7.3000000e+01 8.2177742e+01 1.1271061e+02
7.5000000e+01 8.2227964e+01 1.0820788e+02
7.7500000e+01 8.1987889e+01 1.0274539e+02
8.0000000e+01 8.1940139e+01 9.5478839e+01
8.2500000e+01 8.2058813e+01 8.9568190e+01
8.5000000e+01 8.2077072e+01 8.5950030e+01
8.7500000e+01 8.1748603e+01 8.1275871e+01
9.0000000e+01 8.1585879e+01 7.5708765e+01
9.2500000e+01 8.1549095e+01 7.1712279e+01
9.5000000e+01 8.1558060e+01 6.8595136e+01
9.7500000e+01 8.1386726e+01 6.4587222e+01
1.0000000e+02 8.1309150e+01 6.0754140e+01
1.0300000e+02 8.1250702e+01 5.6440770e+01
1.0600000e+02 8.1182437e+01 5.2515716e+01
1.0900000e+02 8.1092722e+01 4.9380841e+01
1.1200000e+02 8.1007114e+01 4.5163805e+01
1.1500000e+02 8.0929882e+01 4.1860554e+01
1.1800000e+02 8.0852373e+01 3.8586857e+01
1.2200000e+02 8.0693219e+01 3.3933173e+01
1.2500000e+02 8.0550884e+01 3.1208434e+01
1.2800000e+02 8.0460739e+01 2.8624985e+01
1.3200000e+02 8.0305785e+01 2.5139378e+01
1.3600000e+02 8.0176808e+01 2.2299818e+01
1.4000000e+02 8.0083370e+01 1.9655358e+01
1.4500000e+02 8.0000492e+01 1.5657840e+01
1.5000000e+02 7.9792600e+01 1.2294860e+01
1.5500000e+02 7.9639446e+01 9.8050351e+00
1.6000000e+02 7.9699758e+01 6.9737892e+00
1.6500000e+02 7.9505125e+01 3.0229314e+00
1.7000000e+02 7.9396902e+01 1.2924099e+00
1.7500000e+02 7.9403934e+01 -1.9478485e+00
1.8000000e+02 7.9265845e+01 -5.7053014e+00
1.8500000e+02 7.8953864e+01 -8.3163535e+00
1.9000000e+02 7.8731836e+01 -9.3918073e+00
1.9500000e+02 7.9006460e+01 -1.0912481e+01
2.0000000e+02 7.9007958e+01 -1.4871232e+01
2.0600000e+02 7.8762421e+01 -1.9511723e+01
2.1200000e+02 7.8348313e+01 -2.2302546e+01
2.1800000e+02 7.8084440e+01 -2.3981641e+01
2.2400000e+02 7.7813039e+01 -2.6788268e+01
2.3000000e+02 7.7481519e+01 -2.6030261e+01
2.3600000e+02 7.7517096e+01 -2.6615294e+01
2.4300000e+02 7.7855713e+01 -2.9871861e+01
2.5000000e+02 7.7685252e+01 -3.2162046e+01
2.5800000e+02 7.7557996e+01 -3.4895271e+01
2.6500000e+02 7.7699556e+01 -3.6105207e+01
2.7200000e+02 7.7775672e+01 -4.0665656e+01
2.8000000e+02 7.7367835e+01 -4.6151262e+01
2.9000000e+02 7.6421955e+01 -4.6697161e+01
3.0000000e+02 7.6343749e+01 -4.5989586e+01
3.0700000e+02 7.6556667e+01 -4.7040442e+01
3.1500000e+02 7.6620517e+01 -4.6941198e+01
3.2500000e+02 7.6784855e+01 -4.7310066e+01
3.3500000e+02 7.7321535e+01 -4.9624175e+01
3.4500000e+02 7.8032602e+01 -5.4124592e+01
3.5500000e+02 7.8516144e+01 -6.0966165e+01
3.6500000e+02 7.8555732e+01 -7.0712667e+01
3.7500000e+02 7.7703461e+01 -7.7042113e+01
3.8700000e+02 7.7012109e+01 -8.2593794e+01
4.0000000e+02 7.6443411e+01 -8.3141066e+01
4.1200000e+02 7.6559919e+01 -8.6046807e+01
4.2500000e+02 7.6581639e+01 -9.4889727e+01
4.3700000e+02 7.5491505e+01 -1.0124189e+02
4.5000000e+02 7.5556059e+01 -9.5542434e+01
4.6200000e+02 7.5334847e+01 -1.0821914e+02
4.7500000e+02 7.4412458e+01 -1.0757174e+02
4.8700000e+02 7.3631573e+01 -1.0394990e+02
5.0000000e+02 7.3587734e+01 -1.0770915e+02
5.1500000e+02 7.4665309e+01 -1.1086650e+02
5.3000000e+02 7.4449698e+01 -1.1687754e+02
5.4500000e+02 7.4187743e+01 -1.2351282e+02
5.6000000e+02 7.4014070e+01 -1.3173577e+02
5.8000000e+02 7.3008036e+01 -1.4050132e+02
6.0000000e+02 7.1236500e+01 -1.3758449e+02
6.1500000e+02 7.1917059e+01 -1.4261857e+02
6.3000000e+02 7.1883450e+01 -1.4565730e+02
6.5000000e+02 7.1698714e+01 -1.5219796e+02
6.7000000e+02 7.0913380e+01 -1.5766454e+02
6.9000000e+02 7.0058000e+01 -1.6587452e+02
7.1000000e+02 6.9866973e+01 -1.7956577e+02
7.3000000e+02 6.9973833e+01 -1.7566234e+02
7.5000000e+02 6.6503742e+01 1.5740992e+02
7.7500000e+02 6.6472901e+01 1.7359958e+02
8.0000000e+02 6.1667310e+01 1.6495183e+02
8.2500000e+02 6.0518364e+01 1.5970166e+02
8.5000000e+02 6.4385180e+01 -1.7054542e+02
8.7500000e+02 6.4705798e+01 -1.4913658e+02
9.0000000e+02 6.3435969e+01 1.6063994e+02
9.2500000e+02 6.3638764e+01 1.6484786e+02
9.5000000e+02 6.2853428e+01 1.5617585e+02
9.7500000e+02 6.0520961e+01 1.5818591e+02
1.0000000e+03 5.6560060e+01 -1.7259948e+02
1.0300000e+03 5.7918791e+01 1.3632984e+02
1.0600000e+03 5.6322525e+01 -1.7596232e+02
1.0900000e+03 5.6710770e+01 -1.6248325e+02
1.1200000e+03 5.8374188e+01 -1.7374713e+02
1.1500000e+03 5.8929259e+01 -1.6235994e+02
1.1800000e+03 5.5650503e+01 -1.5521744e+02
1.2200000e+03 5.5366871e+01 -1.4599925e+02
1.2500000e+03 5.7307537e+01 -1.4789066e+02
1.2800000e+03 6.0039220e+01 -1.5382999e+02
1.3200000e+03 6.4601283e+01 -1.5886558e+02
1.3600000e+03 6.4765726e+01 -1.6748193e+02
1.4000000e+03 6.6447719e+01 -1.7833065e+02
1.4500000e+03 6.7383491e+01 1.6694721e+02
1.5000000e+03 6.7788936e+01 1.5552143e+02
1.5500000e+03 6.8673755e+01 1.4470070e+02
1.6000000e+03 6.9263718e+01 1.3735962e+02
1.6500000e+03 6.9910001e+01 1.2517259e+02
1.7000000e+03 7.0331486e+01 1.1067956e+02
1.7500000e+03 6.9876849e+01 1.0307097e+02
1.8000000e+03 6.9806674e+01 9.2839939e+01
1.8500000e+03 6.8907475e+01 8.4231647e+01
1.9000000e+03 6.8785092e+01 7.7958905e+01
1.9500000e+03 6.9303164e+01 6.9950594e+01
2.0000000e+03 7.0249178e+01 5.7110086e+01
2.0600000e+03 7.0175107e+01 4.5572499e+01
2.1200000e+03 6.9791034e+01 3.1749970e+01
2.1800000e+03 6.9900292e+01 1.9350463e+01
2.2400000e+03 6.9655500e+01 1.0413217e+01
2.3000000e+03 6.8245637e+01 5.9735716e+00
2.3600000e+03 6.8796387e+01 5.3186391e+00
2.4300000e+03 7.0103815e+01 -5.9660787e+00
2.5000000e+03 7.0642062e+01 -1.9395983e+01
2.5800000e+03 7.0447272e+01 -3.7662240e+01
2.6500000e+03 7.0457969e+01 -5.6586764e+01
2.7200000e+03 7.0245377e+01 -5.8115816e+01
2.8000000e+03 6.9465368e+01 -7.0784738e+01
2.9000000e+03 6.7567972e+01 -8.1432092e+01
3.0000000e+03 6.5549355e+01 -8.8155766e+01
3.0700000e+03 6.5317741e+01 -8.9738438e+01
3.1500000e+03 6.5848092e+01 -9.1361738e+01
3.2500000e+03 6.5232396e+01 -1.0882248e+02
3.3500000e+03 6.4966021e+01 -1.1158244e+02
3.4500000e+03 6.4899524e+01 -1.1618502e+02
3.5500000e+03 6.4523551e+01 -1.2430351e+02
3.6500000e+03 6.4411745e+01 -1.3444689e+02
3.7500000e+03 6.4607740e+01 -1.4438391e+02
3.8700000e+03 6.3797406e+01 -1.5202373e+02
4.0000000e+03 6.3314225e+01 -1.6744053e+02
4.1200000e+03 6.1740564e+01 -1.6547003e+02
4.2500000e+03 6.2355779e+01 -1.7381259e+02
4.3700000e+03 6.2347944e+01 -1.7775712e+02
4.5000000e+03 6.2808020e+01 1.7665480e+02
4.6200000e+03 6.3933492e+01 1.6651931e+02
4.7500000e+03 6.4147858e+01 1.5171849e+02
4.8700000e+03 6.3304488e+01 1.4203653e+02
5.0000000e+03 6.3237670e+01 1.3198450e+02
5.1500000e+03 6.3571504e+01 1.2096367e+02
5.3000000e+03 6.3273991e+01 1.0973513e+02
5.4500000e+03 6.2847864e+01 9.2831898e+01
5.6000000e+03 6.2664670e+01 8.0313681e+01
5.8000000e+03 6.1999844e+01 6.5783433e+01
6.0000000e+03 6.1124096e+01 4.4871160e+01
6.1500000e+03 6.0193512e+01 3.4210615e+01
6.3000000e+03 5.9110597e+01 2.7198830e+01
6.5000000e+03 5.7883183e+01 8.2543297e+00
6.7000000e+03 5.7381301e+01 2.8897959e+00
6.9000000e+03 5.6064146e+01 -3.8705438e+00
7.1000000e+03 5.5501328e+01 -1.9404868e+01
7.3000000e+03 5.5143899e+01 -3.3883763e+01
7.5000000e+03 5.4107826e+01 -4.3567171e+01
7.7500000e+03 5.0651250e+01 -6.0584831e+01
8.0000000e+03 5.1007830e+01 -6.0463374e+01
8.2500000e+03 5.0161921e+01 -7.5503416e+01
8.5000000e+03 4.7888845e+01 -9.7335485e+01
8.7500000e+03 4.3782016e+01 -1.1478466e+02
9.0000000e+03 4.0887173e+01 -1.1680144e+02
9.2500000e+03 4.0336579e+01 -1.0286640e+02
9.5000000e+03 4.1147251e+01 -8.1023253e+01
9.7500000e+03 3.9845461e+01 -9.4633513e+01
1.0000000e+04 3.7721440e+01 -9.2525916e+01
1.0300000e+04 3.6709868e+01 -7.9361160e+01
1.0600000e+04 3.9248122e+01 -7.5448877e+01
1.0900000e+04 3.9928105e+01 -9.0459135e+01
1.1200000e+04 3.7715072e+01 -9.1128832e+01
1.1500000e+04 3.8890622e+01 -8.7817665e+01
1.1800000e+04 4.1564850e+01 -8.8054249e+01
1.2200000e+04 4.3329646e+01 -1.0142103e+02
1.2500000e+04 4.5662463e+01 -1.0173389e+02
1.2800000e+04 4.6980016e+01 -1.1753753e+02
1.3200000e+04 4.7460426e+01 -1.3966312e+02
1.3600000e+04 4.6906467e+01 -1.5879699e+02
1.4000000e+04 4.6087555e+01 -1.7772427e+02
1.4500000e+04 4.4425505e+01 1.6386372e+02
1.5000000e+04 4.2399481e+01 1.6142758e+02
1.5500000e+04 4.4114158e+01 1.6108148e+02
1.6000000e+04 4.4043019e+01 1.2950528e+02
1.6500000e+04 4.4149298e+01 1.1353063e+02
1.7000000e+04 4.3151525e+01 1.0513282e+02
1.7500000e+04 4.3746194e+01 9.7586590e+01
1.8000000e+04 4.5008155e+01 8.0473805e+01
1.8500000e+04 4.5157560e+01 5.5150318e+01
1.9000000e+04 4.2072755e+01 3.3564242e+01
1.9500000e+04 4.3266314e+01 4.3538797e+01
];
