Param_Coord_x1 = 2
Param_Coord_x2 = 210
Param_Coord_x3 = 90
Param_Coord_Type = Spherical
Param_Coord_AngularFormat = degree
Param_Coord_Front = '0,0'
Param_Coord_Top = '90,0'
Data_Domain=Frequency
Data_Phase_AngularFormat=degree
Data_Format = LeveldB_Phase
Data_LevelType=SoundPressure

Curve=[
2.0507813e+01 5.8225825e+01 -5.6476297e+01 
2.1972656e+01 6.0234295e+01 -5.9361487e+01 
2.3437500e+01 6.1347660e+01 -5.8715924e+01 
2.4902344e+01 6.2458759e+01 -6.2992718e+01 
2.6367188e+01 6.4125150e+01 -7.0753848e+01 
2.7832031e+01 6.4816771e+01 -7.3971456e+01 
2.9296875e+01 6.5766277e+01 -7.9375294e+01 
3.0761719e+01 6.6733425e+01 -8.4432712e+01 
3.2226563e+01 6.7672435e+01 -8.9336471e+01 
3.3691406e+01 6.8628799e+01 -9.4820934e+01 
3.5156250e+01 6.9572131e+01 -1.0069766e+02 
3.6621094e+01 7.0443463e+01 -1.0646802e+02 
3.8085938e+01 7.1333440e+01 -1.1274445e+02 
3.9550781e+01 7.2152163e+01 -1.1869625e+02 
4.1015625e+01 7.3018856e+01 -1.2556960e+02 
4.2480469e+01 7.3821655e+01 -1.3263706e+02 
4.3945313e+01 7.4548127e+01 -1.3975768e+02 
4.5410156e+01 7.5230425e+01 -1.4726731e+02 
4.6875000e+01 7.5848695e+01 -1.5464535e+02 
4.8339844e+01 7.6405594e+01 -1.6239235e+02 
5.1269531e+01 7.7259670e+01 -1.7871380e+02 
5.2734375e+01 7.7554158e+01 1.7332367e+02 
5.4199219e+01 7.7757250e+01 1.6571565e+02 
5.5664063e+01 7.7878291e+01 1.5844319e+02 
5.8593750e+01 7.7927956e+01 1.4508021e+02 
6.0058594e+01 7.7880356e+01 1.3876764e+02 
6.2988281e+01 7.7689661e+01 1.2729680e+02 
6.4453125e+01 7.7598044e+01 1.2254894e+02 
6.7382813e+01 7.7518719e+01 1.1418042e+02 
6.8847656e+01 7.7468336e+01 1.1016711e+02 
7.1777344e+01 7.7294659e+01 1.0187559e+02 
7.4707031e+01 7.7170028e+01 9.4204891e+01 
7.7636719e+01 7.7054895e+01 8.7893880e+01 
7.9101563e+01 7.6954437e+01 8.4999524e+01 
8.2031250e+01 7.6753380e+01 7.8976160e+01 
8.4960938e+01 7.6648135e+01 7.3347193e+01 
8.7890625e+01 7.6500130e+01 6.8811980e+01 
9.0820313e+01 7.6335180e+01 6.4568578e+01 
9.5214844e+01 7.6279819e+01 5.8373404e+01 
9.8144531e+01 7.6207952e+01 5.4691747e+01 
1.0107422e+02 7.6142609e+01 5.1045404e+01 
1.0546875e+02 7.6086327e+01 4.5251924e+01 
1.0839844e+02 7.5970363e+01 4.1956437e+01 
1.1279297e+02 7.5878921e+01 3.7859147e+01 
1.1718750e+02 7.5806083e+01 3.3169737e+01 
1.2011719e+02 7.5749758e+01 3.0766276e+01 
1.2451172e+02 7.5738907e+01 2.5742861e+01 
1.2890625e+02 7.5452820e+01 2.1880664e+01 
1.3330078e+02 7.5251192e+01 1.9243011e+01 
1.3916016e+02 7.5274814e+01 1.5787971e+01 
1.4355469e+02 7.5251601e+01 1.2026732e+01 
1.4794922e+02 7.5067915e+01 8.7332839e+00 
1.5380859e+02 7.4926846e+01 6.1105665e+00 
1.5966797e+02 7.5057971e+01 2.0840255e+00 
1.6552734e+02 7.4793273e+01 -2.3445988e+00 
1.7138672e+02 7.4783328e+01 -4.7692449e+00 
1.7724609e+02 7.4682744e+01 -9.4437947e+00 
1.8310547e+02 7.4395425e+01 -1.2461140e+01 
1.8896484e+02 7.4265787e+01 -1.4648775e+01 
1.9628906e+02 7.4413074e+01 -1.7465925e+01 
2.0361328e+02 7.4227615e+01 -2.4065388e+01 
2.1093750e+02 7.3821912e+01 -2.7084328e+01 
2.1826172e+02 7.3577164e+01 -2.9750384e+01 
2.2558594e+02 7.3055901e+01 -3.3552840e+01 
2.3291016e+02 7.3076162e+01 -3.0735195e+01 
2.4169922e+02 7.3282414e+01 -3.7655668e+01 
2.5048828e+02 7.2690703e+01 -3.9221746e+01 
2.5927734e+02 7.2807146e+01 -4.1102466e+01 
2.6806641e+02 7.3016821e+01 -4.3734650e+01 
2.7685547e+02 7.2813343e+01 -5.0391066e+01 
2.8710938e+02 7.1804943e+01 -5.1880092e+01 
2.9736328e+02 7.2038004e+01 -5.1390409e+01 
3.0761719e+02 7.1259351e+01 -5.4776978e+01 
3.1933594e+02 7.1557824e+01 -5.3754593e+01 
3.2958984e+02 7.1146076e+01 -5.1590609e+01 
3.4130859e+02 7.2134252e+01 -5.2337101e+01 
3.5302734e+02 7.3139035e+01 -6.0530270e+01 
3.6621094e+02 7.2898566e+01 -7.5407840e+01 
3.7939453e+02 7.1264716e+01 -8.2008062e+01 
3.9257813e+02 7.0942255e+01 -8.4966880e+01 
4.0576172e+02 7.0796489e+01 -8.7905956e+01 
4.2041016e+02 7.1227165e+01 -9.5504300e+01 
4.3505859e+02 6.9532643e+01 -1.0688493e+02 
4.5117188e+02 7.0173172e+01 -1.0170068e+02 
4.6582031e+02 6.8615457e+01 -1.2011631e+02 
4.8339844e+02 6.8105026e+01 -1.0302393e+02 
4.9951172e+02 6.8466138e+01 -1.0556921e+02 
5.1708984e+02 6.8613710e+01 -1.1599623e+02 
5.3613281e+02 6.8576139e+01 -1.1823492e+02 
5.5517578e+02 6.7865560e+01 -1.2894729e+02 
5.7421875e+02 6.6058352e+01 -1.3527916e+02 
5.9472656e+02 6.7149763e+01 -1.2876908e+02 
6.1523438e+02 6.6720206e+01 -1.4247071e+02 
6.3720703e+02 6.6728571e+01 -1.4867422e+02 
6.5917969e+02 6.6077433e+01 -1.5726134e+02 
6.8261719e+02 6.5906454e+01 -1.6333057e+02 
7.0751953e+02 6.2741447e+01 1.7686270e+02 
7.3242188e+02 6.4016012e+01 -1.7914761e+02 
7.5732422e+02 5.7091176e+01 1.5778633e+02 
7.8515625e+02 6.3116581e+01 1.7740921e+02 
8.1152344e+02 5.3336530e+01 1.7923812e+02 
8.4082031e+02 5.6517694e+01 1.6396751e+02 
8.7011719e+02 5.9867802e+01 -1.6567140e+02 
9.0087891e+02 5.5745582e+01 -1.7368464e+02 
9.3310547e+02 5.7834102e+01 1.5625412e+02 
9.6533203e+02 5.6075763e+01 1.5000844e+02 
1.0004883e+03 5.3053922e+01 1.7956341e+02 
1.0356445e+03 4.8042032e+01 1.6094086e+02 
1.0722656e+03 5.3110647e+01 1.6410098e+02 
1.1088867e+03 5.5469294e+01 1.7148502e+02 
1.1484375e+03 5.3123833e+01 1.6041841e+02 
1.1894531e+03 5.0379385e+01 -1.5008696e+02 
1.2304688e+03 4.8393873e+01 -1.5408509e+02 
1.2744141e+03 5.3975585e+01 -1.6568849e+02 
1.3198242e+03 5.5127374e+01 -1.7914373e+02 
1.3666992e+03 5.5909565e+01 1.7859858e+02 
1.4135742e+03 6.0103388e+01 1.6798642e+02 
1.4633789e+03 5.8872131e+01 1.3793052e+02 
1.5161133e+03 5.9238523e+01 1.4357423e+02 
1.5688477e+03 6.0268981e+01 1.3352066e+02 
1.6245117e+03 6.0303506e+01 1.2115892e+02 
1.6816406e+03 6.1033222e+01 1.1006009e+02 
1.7416992e+03 6.1626982e+01 9.7958225e+01 
1.8032227e+03 6.1086146e+01 8.3892418e+01 
1.8662109e+03 6.2486915e+01 7.9074620e+01 
1.9321289e+03 6.2398829e+01 6.6577570e+01 
1.9995117e+03 6.2613363e+01 4.9177509e+01 
2.0698242e+03 6.3663828e+01 3.4888766e+01 
2.1430664e+03 6.2319317e+01 2.0704476e+01 
2.2192383e+03 6.3459787e+01 1.1724475e+01 
2.2968750e+03 6.4459450e+01 -5.9078498e+00 
2.3789063e+03 6.3266465e+01 -2.9594492e+01 
2.4624023e+03 6.1475934e+01 -3.0704219e+01 
2.5488281e+03 6.2976397e+01 -4.7893828e+01 
2.6396484e+03 6.1727750e+01 -6.1131571e+01 
2.7319336e+03 6.3601673e+01 -6.0364119e+01 
2.8286133e+03 6.2788956e+01 -8.4254227e+01 
2.9282227e+03 6.2151971e+01 -9.4483456e+01 
3.0307617e+03 6.0675431e+01 -1.1281594e+02 
3.1376953e+03 6.1770756e+01 -1.2060374e+02 
3.2490234e+03 6.0184060e+01 -1.3141278e+02 
3.3632813e+03 5.9936019e+01 -1.4826160e+02 
3.4819336e+03 5.9620561e+01 -1.5655473e+02 
3.6049805e+03 5.7208160e+01 -1.4957720e+02 
3.7324219e+03 5.8950814e+01 1.6756310e+02 
3.8642578e+03 5.9492174e+01 -1.7748464e+02 
4.0004883e+03 5.5281819e+01 1.7136956e+02 
4.1411133e+03 5.7991159e+01 1.5288638e+02 
4.2875977e+03 5.4857667e+01 1.5340747e+02 
4.4384766e+03 5.8539822e+01 1.4427431e+02 
4.5952148e+03 5.6640996e+01 1.4149382e+02 
4.7563477e+03 5.8721104e+01 1.2067275e+02 
4.9248047e+03 5.7794903e+01 1.0872991e+02 
5.0976563e+03 5.8643535e+01 9.3859757e+01 
5.2778320e+03 5.8235169e+01 7.2860367e+01 
5.4638672e+03 5.7624511e+01 5.8729518e+01 
5.6572266e+03 5.6799204e+01 4.2586244e+01 
5.8564453e+03 5.6416421e+01 2.3187121e+01 
6.0629883e+03 5.7283407e+01 6.4160413e+00 
6.2768555e+03 5.4647189e+01 -1.0287247e+01 
6.4980469e+03 5.5507507e+01 -3.3663289e+01 
6.7265625e+03 5.4930500e+01 -5.1303738e+01 
6.9638672e+03 5.3488666e+01 -7.9896832e+01 
7.2099609e+03 5.0676371e+01 -1.0295528e+02 
7.4648438e+03 4.9153501e+01 -1.1297052e+02 
7.7270508e+03 4.7784159e+01 -1.2599431e+02 
7.9995117e+03 4.5380552e+01 -1.6228637e+02 
8.2822266e+03 4.3673844e+01 -1.5930117e+02 
8.5737305e+03 3.7592580e+01 1.7133013e+02 
8.8769531e+03 3.8565386e+01 1.7985810e+02 
9.1889648e+03 3.8524277e+01 -1.7118008e+02 
9.5141602e+03 3.9515989e+01 1.6161691e+02 
9.8496094e+03 3.7668806e+01 1.2702943e+02 
1.0196777e+04 3.4237180e+01 9.2902481e+01 
1.0555664e+04 2.9177944e+01 4.0161551e+01 
1.0927734e+04 3.1026314e+01 1.7503699e+02 
1.1312988e+04 3.4203369e+01 1.5419120e+02 
1.1712891e+04 3.5977639e+01 1.1524752e+02 
1.2125977e+04 3.5421491e+01 1.0046157e+02 
1.2553711e+04 3.7741835e+01 7.2477763e+01 
1.2996094e+04 3.9112471e+01 4.2474539e+01 
1.3454590e+04 3.7873129e+01 1.0283807e+01 
1.3929199e+04 3.7312459e+01 -2.5644143e+01 
1.4419922e+04 3.6141522e+01 -5.8396679e+01 
1.4928223e+04 3.3833250e+01 -9.5597731e+01 
1.5455566e+04 2.9659096e+01 -1.1119189e+02 
1.6000488e+04 2.7557540e+01 -1.0634509e+02 
1.6564453e+04 3.3595004e+01 -1.5001223e+02 
1.7148926e+04 2.7589372e+01 1.7647658e+02 
1.7752441e+04 2.4391627e+01 1.4650298e+02 
1.8379395e+04 3.1439865e+01 1.6078754e+02 
1.9026855e+04 3.3134650e+01 1.1727866e+02 
1.9697754e+04 3.2555623e+01 4.6036876e+01 
1.9999512e+04 2.7978282e+01 8.3311904e+01 
];
