Param_Coord_x1 = 2
Param_Coord_x2 = 150
Param_Coord_x3 = 90
Param_Coord_Type = Spherical
Param_Coord_AngularFormat = degree
Param_Coord_Front = '0,0'
Param_Coord_Top = '90,0'
Data_Domain=Frequency
Data_Phase_AngularFormat=degree
Data_Format = LeveldB_Phase
Data_LevelType=SoundPressure

Curve=[
2.0507813e+01 5.8193668e+01 -5.6873041e+01 
2.1972656e+01 5.9998870e+01 -5.9019935e+01 
2.3437500e+01 6.1470812e+01 -5.8912463e+01 
2.4902344e+01 6.2408949e+01 -6.3464664e+01 
2.6367188e+01 6.4099255e+01 -7.0816806e+01 
2.7832031e+01 6.4751363e+01 -7.4190788e+01 
2.9296875e+01 6.5733413e+01 -7.9497830e+01 
3.0761719e+01 6.6709673e+01 -8.4453854e+01 
3.2226563e+01 6.7649843e+01 -8.9425213e+01 
3.3691406e+01 6.8620430e+01 -9.4919987e+01 
3.5156250e+01 6.9557534e+01 -1.0078007e+02 
3.6621094e+01 7.0438956e+01 -1.0663792e+02 
3.8085938e+01 7.1319394e+01 -1.1288569e+02 
3.9550781e+01 7.2142523e+01 -1.1895741e+02 
4.1015625e+01 7.3001892e+01 -1.2579665e+02 
4.2480469e+01 7.3785365e+01 -1.3286706e+02 
4.3945313e+01 7.4514278e+01 -1.3995706e+02 
4.5410156e+01 7.5194901e+01 -1.4733385e+02 
4.6875000e+01 7.5818956e+01 -1.5461200e+02 
4.8339844e+01 7.6401095e+01 -1.6248606e+02 
5.1269531e+01 7.7253561e+01 -1.7882523e+02 
5.2734375e+01 7.7549212e+01 1.7319891e+02 
5.4199219e+01 7.7751486e+01 1.6558115e+02 
5.5664063e+01 7.7876037e+01 1.5831862e+02 
5.8593750e+01 7.7930831e+01 1.4494394e+02 
6.0058594e+01 7.7885586e+01 1.3860335e+02 
6.2988281e+01 7.7694892e+01 1.2720732e+02 
6.4453125e+01 7.7610513e+01 1.2239543e+02 
6.7382813e+01 7.7525478e+01 1.1395658e+02 
6.8847656e+01 7.7467596e+01 1.0995859e+02 
7.1777344e+01 7.7295003e+01 1.0166314e+02 
7.4707031e+01 7.7167091e+01 9.4101300e+01 
7.7636719e+01 7.7053950e+01 8.7758496e+01 
7.9101563e+01 7.6950101e+01 8.4877237e+01 
8.2031250e+01 7.6746456e+01 7.8921266e+01 
8.4960938e+01 7.6644890e+01 7.3366144e+01 
8.7890625e+01 7.6507219e+01 6.8878259e+01 
9.0820313e+01 7.6357628e+01 6.4603073e+01 
9.5214844e+01 7.6278481e+01 5.8290891e+01 
9.8144531e+01 7.6202256e+01 5.4701339e+01 
1.0107422e+02 7.6130678e+01 5.1116171e+01 
1.0546875e+02 7.6085193e+01 4.5436882e+01 
1.0839844e+02 7.5966573e+01 4.2207508e+01 
1.1279297e+02 7.5917393e+01 3.8118573e+01 
1.1718750e+02 7.5824421e+01 3.3410921e+01 
1.2011719e+02 7.5795747e+01 3.0831493e+01 
1.2451172e+02 7.5748019e+01 2.5795881e+01 
1.2890625e+02 7.5425583e+01 2.1758998e+01 
1.3330078e+02 7.5224778e+01 1.9842091e+01 
1.3916016e+02 7.5297737e+01 1.5889156e+01 
1.4355469e+02 7.5243734e+01 1.2204140e+01 
1.4794922e+02 7.5066412e+01 9.0229296e+00 
1.5380859e+02 7.4918935e+01 6.2400983e+00 
1.5966797e+02 7.4999575e+01 2.2686120e+00 
1.6552734e+02 7.4735209e+01 -1.3785526e+00 
1.7138672e+02 7.4858249e+01 -4.0549448e+00 
1.7724609e+02 7.4719398e+01 -9.2262837e+00 
1.8310547e+02 7.4345788e+01 -1.2374190e+01 
1.8896484e+02 7.4196606e+01 -1.3337383e+01 
1.9628906e+02 7.4476467e+01 -1.7331331e+01 
2.0361328e+02 7.4180377e+01 -2.3041324e+01 
2.1093750e+02 7.3853773e+01 -2.6273246e+01 
2.1826172e+02 7.3625884e+01 -2.8642695e+01 
2.2558594e+02 7.3122989e+01 -3.2662441e+01 
2.3291016e+02 7.3265727e+01 -2.9986478e+01 
2.4169922e+02 7.3295204e+01 -3.7857844e+01 
2.5048828e+02 7.2803672e+01 -3.9532481e+01 
2.5927734e+02 7.2650915e+01 -4.0218748e+01 
2.6806641e+02 7.3114457e+01 -4.3671930e+01 
2.7685547e+02 7.2738574e+01 -4.9807856e+01 
2.8710938e+02 7.1816496e+01 -5.1242970e+01 
2.9736328e+02 7.2194766e+01 -5.2732272e+01 
3.0761719e+02 7.0944395e+01 -5.6054212e+01 
3.1933594e+02 7.1334137e+01 -5.0978415e+01 
3.2958984e+02 7.1157765e+01 -5.2067921e+01 
3.4130859e+02 7.2142064e+01 -5.1666835e+01 
3.5302734e+02 7.2896769e+01 -6.1542772e+01 
3.6621094e+02 7.2574579e+01 -7.3827998e+01 
3.7939453e+02 7.1337969e+01 -8.0543911e+01 
3.9257813e+02 7.0581737e+01 -8.7036908e+01 
4.0576172e+02 7.0544724e+01 -8.6374711e+01 
4.2041016e+02 7.0667325e+01 -9.7389641e+01 
4.3505859e+02 6.8636797e+01 -1.0487198e+02 
4.5117188e+02 6.9120074e+01 -1.0038903e+02 
4.6582031e+02 6.8121784e+01 -1.0974997e+02 
4.8339844e+02 6.8292718e+01 -1.0130380e+02 
4.9951172e+02 6.7934358e+01 -1.0779339e+02 
5.1708984e+02 6.8011750e+01 -1.1263428e+02 
5.3613281e+02 6.7226936e+01 -1.1327178e+02 
5.5517578e+02 6.7950558e+01 -1.2118474e+02 
5.7421875e+02 6.5523385e+01 -1.3266873e+02 
5.9472656e+02 6.6928459e+01 -1.2083095e+02 
6.1523438e+02 6.6353162e+01 -1.4185478e+02 
6.3720703e+02 6.6118142e+01 -1.4044348e+02 
6.5917969e+02 6.5539017e+01 -1.5308942e+02 
6.8261719e+02 6.4773556e+01 -1.5527193e+02 
7.0751953e+02 6.2466871e+01 -1.7605014e+02 
7.3242188e+02 6.3696872e+01 -1.7471051e+02 
7.5732422e+02 5.6462555e+01 1.7246562e+02 
7.8515625e+02 6.1927901e+01 -1.7405191e+02 
8.1152344e+02 5.4635743e+01 -1.6664497e+02 
8.4082031e+02 5.4711296e+01 -1.7854844e+02 
8.7011719e+02 5.9502377e+01 -1.5838331e+02 
9.0087891e+02 5.4524790e+01 -1.5789494e+02 
9.3310547e+02 5.4253849e+01 1.7257903e+02 
9.6533203e+02 5.5651466e+01 1.7902761e+02 
1.0004883e+03 5.6811072e+01 -1.6388551e+02 
1.0356445e+03 5.2713882e+01 -1.7480426e+02 
1.0722656e+03 5.3117577e+01 1.7197068e+02 
1.1088867e+03 5.3637689e+01 1.7969803e+02 
1.1484375e+03 5.3889416e+01 -1.7518742e+02 
1.1894531e+03 5.4414415e+01 -1.6086825e+02 
1.2304688e+03 5.2838760e+01 -1.5658451e+02 
1.2744141e+03 5.6148299e+01 -1.7783537e+02 
1.3198242e+03 5.7879695e+01 -1.7385650e+02 
1.3666992e+03 5.4968129e+01 1.7502729e+02 
1.4135742e+03 5.9254747e+01 -1.7825110e+02 
1.4633789e+03 5.9363304e+01 1.5845486e+02 
1.5161133e+03 6.1187973e+01 1.4821062e+02 
1.5688477e+03 6.0650648e+01 1.4054848e+02 
1.6245117e+03 6.2019986e+01 1.2484522e+02 
1.6816406e+03 6.2220215e+01 1.0813422e+02 
1.7416992e+03 6.1596270e+01 9.9446807e+01 
1.8032227e+03 6.2096309e+01 8.8792313e+01 
1.8662109e+03 6.1984562e+01 7.6992684e+01 
1.9321289e+03 6.0888038e+01 6.7832211e+01 
1.9995117e+03 6.1823631e+01 6.5982237e+01 
2.0698242e+03 6.4485714e+01 5.4519072e+01 
2.1430664e+03 6.3999689e+01 2.6530826e+01 
2.2192383e+03 6.3806921e+01 1.7020326e+01 
2.2968750e+03 6.3398508e+01 -3.4270502e-01 
2.3789063e+03 6.3668319e+01 -8.1644173e+00 
2.4624023e+03 6.3078845e+01 -3.0769681e+01 
2.5488281e+03 6.2984104e+01 -3.8676297e+01 
2.6396484e+03 6.1471045e+01 -5.0850660e+01 
2.7319336e+03 6.3152476e+01 -5.9558868e+01 
2.8286133e+03 6.1578395e+01 -7.3583338e+01 
2.9282227e+03 6.1324119e+01 -8.9671536e+01 
3.0307617e+03 6.1432063e+01 -1.0455118e+02 
3.1376953e+03 6.0176845e+01 -1.0398244e+02 
3.2490234e+03 6.0787931e+01 -1.2140632e+02 
3.3632813e+03 5.8673502e+01 -1.3978690e+02 
3.4819336e+03 5.8273941e+01 -1.1811521e+02 
3.6049805e+03 5.8506817e+01 -1.5564168e+02 
3.7324219e+03 5.8787009e+01 -1.5432540e+02 
3.8642578e+03 5.7354505e+01 -1.4913499e+02 
4.0004883e+03 5.7199668e+01 -1.7481665e+02 
4.1411133e+03 5.7666396e+01 1.7764014e+02 
4.2875977e+03 5.7531043e+01 -1.7892185e+02 
4.4384766e+03 5.9340939e+01 1.6226987e+02 
4.5952148e+03 5.8156538e+01 1.5153158e+02 
4.7563477e+03 5.9457129e+01 1.3862629e+02 
4.9248047e+03 5.9781068e+01 1.2280515e+02 
5.0976563e+03 5.7954144e+01 1.0235326e+02 
5.2778320e+03 5.9799737e+01 9.5584187e+01 
5.4638672e+03 5.6860575e+01 7.5452668e+01 
5.6572266e+03 5.7853552e+01 5.7958978e+01 
5.8564453e+03 5.6059146e+01 4.6817126e+01 
6.0629883e+03 5.5624262e+01 2.9264260e+01 
6.2768555e+03 5.4745261e+01 1.3433943e+01 
6.4980469e+03 5.4184530e+01 -6.6134532e+00 
6.7265625e+03 5.3349800e+01 -2.1446531e+01 
6.9638672e+03 5.1328217e+01 -4.4820486e+01 
7.2099609e+03 5.0125627e+01 -5.5199846e+01 
7.4648438e+03 4.8448313e+01 -6.6838510e+01 
7.7270508e+03 4.7339689e+01 -8.7298838e+01 
7.9995117e+03 4.5083786e+01 -1.0091042e+02 
8.2822266e+03 4.3434714e+01 -1.0600732e+02 
8.5737305e+03 4.2382668e+01 -1.0046965e+02 
8.8769531e+03 4.2695542e+01 -1.3194975e+02 
9.1889648e+03 4.3306798e+01 -1.2992708e+02 
9.5141602e+03 4.1881056e+01 -1.5415184e+02 
9.8496094e+03 3.8408280e+01 -1.7265532e+02 
1.0196777e+04 3.9153129e+01 1.7105707e+02 
1.0555664e+04 3.5492498e+01 1.4229927e+02 
1.0927734e+04 2.9381426e+01 1.6622371e+02 
1.1312988e+04 3.5143580e+01 -1.6532303e+02 
1.1712891e+04 3.6373099e+01 1.6753693e+02 
1.2125977e+04 3.7355140e+01 1.2943010e+02 
1.2553711e+04 3.6381078e+01 1.0659988e+02 
1.2996094e+04 3.5058018e+01 7.6041613e+01 
1.3454590e+04 2.4579344e+01 3.7782243e+01 
1.3929199e+04 2.3085455e+01 4.7116717e+01 
1.4419922e+04 1.9978320e+01 1.7588673e+02 
1.4928223e+04 7.1087918e+00 1.7656687e+02 
1.5455566e+04 3.3479477e+01 1.4991355e+02 
1.6000488e+04 3.4830059e+01 7.2328100e+01 
1.6564453e+04 3.0992841e+01 6.2588420e+01 
1.7148926e+04 3.0369344e+01 4.2158037e+01 
1.7752441e+04 3.4212872e+01 5.1926998e+01 
1.8379395e+04 3.4379920e+01 2.1024736e+01 
1.9026855e+04 3.7489528e+01 1.0453217e+01 
1.9697754e+04 4.2201445e+01 -4.9396056e+01 
1.9999512e+04 4.1486135e+01 -7.0063747e+01 
];
