Param_Coord_x1 = 2
Param_Coord_x2 = 300
Param_Coord_x3 = 90
Param_Coord_Type = Spherical
Param_Coord_AngularFormat = degree
Param_Coord_Front = '0,0'
Param_Coord_Top = '90,0'
Data_Domain=Frequency
Data_Phase_AngularFormat=degree
Data_Format = LeveldB_Phase
Data_LevelType=SoundPressure

Curve=[
2.0507813e+01 5.1682431e+01 -1.2416757e+02 
2.1972656e+01 5.2275797e+01 -1.2294793e+02 
2.3437500e+01 5.4494191e+01 -1.1765337e+02 
2.4902344e+01 5.5736352e+01 -1.1845174e+02 
2.6367188e+01 5.7648265e+01 -1.1881592e+02 
2.7832031e+01 5.9181347e+01 -1.2245643e+02 
2.9296875e+01 6.0547847e+01 -1.2690676e+02 
3.0761719e+01 6.1801792e+01 -1.3004018e+02 
3.2226563e+01 6.3073985e+01 -1.3331961e+02 
3.3691406e+01 6.4432166e+01 -1.3701943e+02 
3.5156250e+01 6.5716454e+01 -1.4144046e+02 
3.6621094e+01 6.6902807e+01 -1.4603807e+02 
3.8085938e+01 6.8093019e+01 -1.5098724e+02 
3.9550781e+01 6.9132579e+01 -1.5583989e+02 
4.1015625e+01 7.0257189e+01 -1.6136956e+02 
4.2480469e+01 7.1290200e+01 -1.6702062e+02 
4.3945313e+01 7.2238954e+01 -1.7306127e+02 
4.5410156e+01 7.3129847e+01 -1.7943406e+02 
4.6875000e+01 7.3933490e+01 1.7411212e+02 
4.8339844e+01 7.4638498e+01 1.6746116e+02 
5.1269531e+01 7.5796265e+01 1.5316201e+02 
5.2734375e+01 7.6224034e+01 1.4621592e+02 
5.4199219e+01 7.6541958e+01 1.3961650e+02 
5.5664063e+01 7.6780270e+01 1.3333577e+02 
5.8593750e+01 7.7044432e+01 1.2177691e+02 
6.0058594e+01 7.7087773e+01 1.1632676e+02 
6.2988281e+01 7.7075798e+01 1.0639429e+02 
6.4453125e+01 7.7038543e+01 1.0240723e+02 
6.7382813e+01 7.7085913e+01 9.5529814e+01 
6.8847656e+01 7.7088005e+01 9.2237436e+01 
7.1777344e+01 7.6995453e+01 8.5495024e+01 
7.4707031e+01 7.6946990e+01 7.9110071e+01 
7.7636719e+01 7.6907291e+01 7.4183719e+01 
7.9101563e+01 7.6844252e+01 7.1939956e+01 
8.2031250e+01 7.6708980e+01 6.7206499e+01 
8.4960938e+01 7.6654012e+01 6.2702076e+01 
8.7890625e+01 7.6564619e+01 5.9313444e+01 
9.0820313e+01 7.6458094e+01 5.6126559e+01 
9.5214844e+01 7.6461251e+01 5.1310106e+01 
9.8144531e+01 7.6445099e+01 4.8483121e+01 
1.0107422e+02 7.6395184e+01 4.5490274e+01 
1.0546875e+02 7.6304178e+01 4.1377690e+01 
1.0839844e+02 7.6260656e+01 3.9226091e+01 
1.1279297e+02 7.6236845e+01 3.6303724e+01 
1.1718750e+02 7.6271676e+01 3.2766882e+01 
1.2011719e+02 7.6217102e+01 3.0673284e+01 
1.2451172e+02 7.6159054e+01 2.7813939e+01 
1.2890625e+02 7.6051001e+01 2.5699192e+01 
1.3330078e+02 7.6135051e+01 2.3786875e+01 
1.3916016e+02 7.6197771e+01 1.9638241e+01 
1.4355469e+02 7.6032128e+01 1.6838380e+01 
1.4794922e+02 7.5845598e+01 1.5246297e+01 
1.5380859e+02 7.5812725e+01 1.4182123e+01 
1.5966797e+02 7.5961849e+01 1.1534826e+01 
1.6552734e+02 7.5877876e+01 8.8239673e+00 
1.7138672e+02 7.5891150e+01 6.2397226e+00 
1.7724609e+02 7.5659196e+01 3.4495996e+00 
1.8310547e+02 7.5472172e+01 2.3740260e+00 
1.8896484e+02 7.5409288e+01 1.6153568e+00 
1.9628906e+02 7.5744447e+01 -6.3936569e-01 
2.0361328e+02 7.5433182e+01 -4.8207059e+00 
2.1093750e+02 7.5133447e+01 -6.2611034e+00 
2.1826172e+02 7.5134069e+01 -6.7182772e+00 
2.2558594e+02 7.4925063e+01 -7.3323170e+00 
2.3291016e+02 7.5477099e+01 -9.1681954e+00 
2.4169922e+02 7.4932118e+01 -1.2592460e+01 
2.5048828e+02 7.5228969e+01 -1.1918274e+01 
2.5927734e+02 7.5433413e+01 -1.6117787e+01 
2.6806641e+02 7.5183932e+01 -2.1551163e+01 
2.7685547e+02 7.4301632e+01 -2.1098128e+01 
2.8710938e+02 7.4557008e+01 -1.8807703e+01 
2.9736328e+02 7.5019332e+01 -2.2937802e+01 
3.0761719e+02 7.4210403e+01 -2.5241030e+01 
3.1933594e+02 7.3793050e+01 -2.7821924e+01 
3.2958984e+02 7.3694180e+01 -2.4642582e+01 
3.4130859e+02 7.3513664e+01 -2.7498668e+01 
3.5302734e+02 7.3107662e+01 -2.8149092e+01 
3.6621094e+02 7.2200373e+01 -2.7841106e+01 
3.7939453e+02 7.3375318e+01 -2.2129067e+01 
3.9257813e+02 7.3719258e+01 -3.0707724e+01 
4.0576172e+02 7.3403267e+01 -3.6674383e+01 
4.2041016e+02 7.3171822e+01 -3.7558615e+01 
4.3505859e+02 7.3400184e+01 -3.8771671e+01 
4.5117188e+02 7.3043639e+01 -4.4932716e+01 
4.6582031e+02 7.3229900e+01 -3.7362063e+01 
4.8339844e+02 7.3512067e+01 -4.5523197e+01 
4.9951172e+02 7.3589802e+01 -4.6934142e+01 
5.1708984e+02 7.3084388e+01 -4.7777473e+01 
5.3613281e+02 7.2349827e+01 -4.8537301e+01 
5.5517578e+02 7.3404683e+01 -4.6565167e+01 
5.7421875e+02 7.3906760e+01 -5.1398733e+01 
5.9472656e+02 7.3742513e+01 -5.9487923e+01 
6.1523438e+02 7.3501882e+01 -6.6179481e+01 
6.3720703e+02 7.3161628e+01 -6.7801019e+01 
6.5917969e+02 7.2893163e+01 -7.3588656e+01 
6.8261719e+02 7.2093887e+01 -7.2884626e+01 
7.0751953e+02 7.2282188e+01 -7.8047592e+01 
7.3242188e+02 7.1446649e+01 -7.5461308e+01 
7.5732422e+02 7.1362907e+01 -8.4968134e+01 
7.8515625e+02 7.1087148e+01 -7.4813295e+01 
8.1152344e+02 7.1271118e+01 -8.0597778e+01 
8.4082031e+02 7.1016446e+01 -8.3335784e+01 
8.7011719e+02 7.1835878e+01 -7.9981829e+01 
9.0087891e+02 7.1896453e+01 -8.8257509e+01 
9.3310547e+02 7.1865984e+01 -9.1330036e+01 
9.6533203e+02 7.2317887e+01 -9.4751562e+01 
1.0004883e+03 7.1891170e+01 -1.0075278e+02 
1.0356445e+03 7.1899636e+01 -1.0529351e+02 
1.0722656e+03 7.2017709e+01 -1.0760889e+02 
1.1088867e+03 7.2322790e+01 -1.1105287e+02 
1.1484375e+03 7.2478263e+01 -1.1901578e+02 
1.1894531e+03 7.2223689e+01 -1.2771879e+02 
1.2304688e+03 7.2015307e+01 -1.3412398e+02 
1.2744141e+03 7.1542811e+01 -1.4015837e+02 
1.3198242e+03 7.1274509e+01 -1.4158313e+02 
1.3666992e+03 7.0803363e+01 -1.4860836e+02 
1.4135742e+03 7.1324117e+01 -1.4946663e+02 
1.4633789e+03 7.1414910e+01 -1.5976345e+02 
1.5161133e+03 7.0783189e+01 -1.6688623e+02 
1.5688477e+03 6.9906036e+01 -1.7066313e+02 
1.6245117e+03 7.0120482e+01 -1.7600660e+02 
1.6816406e+03 7.0564887e+01 1.7826633e+02 
1.7416992e+03 7.0509237e+01 1.6878675e+02 
1.8032227e+03 6.9925123e+01 1.6491917e+02 
1.8662109e+03 6.9688376e+01 1.6458282e+02 
1.9321289e+03 7.0481145e+01 1.6092776e+02 
1.9995117e+03 7.1002946e+01 1.4829944e+02 
2.0698242e+03 7.0432435e+01 1.3780669e+02 
2.1430664e+03 6.9864861e+01 1.3672105e+02 
2.2192383e+03 7.0519001e+01 1.3417461e+02 
2.2968750e+03 7.1102479e+01 1.2360767e+02 
2.3789063e+03 7.1026783e+01 1.1861612e+02 
2.4624023e+03 7.1540957e+01 1.1082850e+02 
2.5488281e+03 7.1952808e+01 1.0029156e+02 
2.6396484e+03 7.1772002e+01 9.4643876e+01 
2.7319336e+03 7.2339630e+01 9.0459300e+01 
2.8286133e+03 7.3020092e+01 7.8941571e+01 
2.9282227e+03 7.2087896e+01 6.9378832e+01 
3.0307617e+03 7.2467150e+01 6.6976972e+01 
3.1376953e+03 7.2850513e+01 5.7104222e+01 
3.2490234e+03 7.2471085e+01 5.1031112e+01 
3.3632813e+03 7.2520565e+01 4.5158127e+01 
3.4819336e+03 7.2038295e+01 4.0568747e+01 
3.6049805e+03 7.2346138e+01 3.5589125e+01 
3.7324219e+03 7.1725426e+01 2.8259299e+01 
3.8642578e+03 7.2077534e+01 2.6356636e+01 
4.0004883e+03 7.1405733e+01 1.7134647e+01 
4.1411133e+03 7.2007081e+01 1.4362730e+01 
4.2875977e+03 7.0847487e+01 6.0457248e+00 
4.4384766e+03 7.1115174e+01 3.0469317e+00 
4.5952148e+03 7.0491405e+01 1.6812530e+00 
4.7563477e+03 7.1139720e+01 -2.9776981e+00 
4.9248047e+03 7.1548703e+01 -7.5888269e+00 
5.0976563e+03 7.1408823e+01 -1.5107271e+01 
5.2778320e+03 7.1670101e+01 -2.4816627e+01 
5.4638672e+03 7.1313407e+01 -2.6820758e+01 
5.6572266e+03 7.0846794e+01 -3.5863429e+01 
5.8564453e+03 7.0545888e+01 -4.1442532e+01 
6.0629883e+03 7.0799967e+01 -4.6137802e+01 
6.2768555e+03 7.0272762e+01 -4.9449852e+01 
6.4980469e+03 7.0114136e+01 -5.9215700e+01 
6.7265625e+03 7.0274081e+01 -6.4887515e+01 
6.9638672e+03 6.9344166e+01 -7.2192609e+01 
7.2099609e+03 6.9286967e+01 -7.9806384e+01 
7.4648438e+03 6.8565030e+01 -8.1493999e+01 
7.7270508e+03 6.7697424e+01 -8.6998964e+01 
7.9995117e+03 6.7799169e+01 -8.9949486e+01 
8.2822266e+03 6.8126630e+01 -9.3117700e+01 
8.5737305e+03 6.7904371e+01 -9.9401085e+01 
8.8769531e+03 6.7673962e+01 -1.0552909e+02 
9.1889648e+03 6.7797173e+01 -1.1249717e+02 
9.5141602e+03 6.7483820e+01 -1.1963051e+02 
9.8496094e+03 6.6919643e+01 -1.2452834e+02 
1.0196777e+04 6.6674148e+01 -1.2981545e+02 
1.0555664e+04 6.6049375e+01 -1.3622436e+02 
1.0927734e+04 6.5317872e+01 -1.3966069e+02 
1.1312988e+04 6.4761419e+01 -1.4294088e+02 
1.1712891e+04 6.4043016e+01 -1.4335003e+02 
1.2125977e+04 6.4194349e+01 -1.4273653e+02 
1.2553711e+04 6.4708290e+01 -1.4799168e+02 
1.2996094e+04 6.4500261e+01 -1.5617053e+02 
1.3454590e+04 6.4156398e+01 -1.6097926e+02 
1.3929199e+04 6.4429743e+01 -1.6693756e+02 
1.4419922e+04 6.4461245e+01 -1.7805855e+02 
1.4928223e+04 6.4034826e+01 1.7128325e+02 
1.5455566e+04 6.3523025e+01 1.6305631e+02 
1.6000488e+04 6.3612023e+01 1.5501467e+02 
1.6564453e+04 6.3614021e+01 1.4449587e+02 
1.7148926e+04 6.3663327e+01 1.3432890e+02 
1.7752441e+04 6.3424158e+01 1.2310467e+02 
1.8379395e+04 6.3258063e+01 1.1179801e+02 
1.9026855e+04 6.2416825e+01 9.9133269e+01 
1.9697754e+04 6.1611602e+01 8.9143179e+01 
1.9999512e+04 6.0883494e+01 8.2920664e+01 
];
