Param_Coord_x1 = 2
Param_Coord_x2 = 190
Param_Coord_x3 = 90
Param_Coord_Type = Spherical
Param_Coord_AngularFormat = degree
Param_Coord_Front = '0,0'
Param_Coord_Top = '90,0'
Data_Domain=Frequency
Data_Phase_AngularFormat=degree
Data_Format = LeveldB_Phase
Data_LevelType=SoundPressure

Curve=[
2.0507813e+01 5.9037692e+01 -5.3653201e+01 
2.1972656e+01 6.0980145e+01 -5.6794050e+01 
2.3437500e+01 6.2136669e+01 -5.6135214e+01 
2.4902344e+01 6.3168205e+01 -6.0515603e+01 
2.6367188e+01 6.4783886e+01 -6.8316526e+01 
2.7832031e+01 6.5433530e+01 -7.1327912e+01 
2.9296875e+01 6.6366386e+01 -7.6606928e+01 
3.0761719e+01 6.7307785e+01 -8.1619192e+01 
3.2226563e+01 6.8218115e+01 -8.6505915e+01 
3.3691406e+01 6.9143610e+01 -9.1948446e+01 
3.5156250e+01 7.0054364e+01 -9.7781487e+01 
3.6621094e+01 7.0899448e+01 -1.0353410e+02 
3.8085938e+01 7.1756607e+01 -1.0977608e+02 
3.9550781e+01 7.2551755e+01 -1.1574976e+02 
4.1015625e+01 7.3387359e+01 -1.2260633e+02 
4.2480469e+01 7.4156185e+01 -1.2969017e+02 
4.3945313e+01 7.4857214e+01 -1.3680100e+02 
4.5410156e+01 7.5512648e+01 -1.4428370e+02 
4.6875000e+01 7.6109430e+01 -1.5163665e+02 
4.8339844e+01 7.6651767e+01 -1.5945699e+02 
5.1269531e+01 7.7461251e+01 -1.7584778e+02 
5.2734375e+01 7.7735385e+01 1.7614228e+02 
5.4199219e+01 7.7919176e+01 1.6847965e+02 
5.5664063e+01 7.8022148e+01 1.6115615e+02 
5.8593750e+01 7.8038004e+01 1.4768303e+02 
6.0058594e+01 7.7974848e+01 1.4130247e+02 
6.2988281e+01 7.7753244e+01 1.2974930e+02 
6.4453125e+01 7.7652283e+01 1.2492232e+02 
6.7382813e+01 7.7547677e+01 1.1640882e+02 
6.8847656e+01 7.7484432e+01 1.1233363e+02 
7.1777344e+01 7.7292297e+01 1.0388893e+02 
7.4707031e+01 7.7149853e+01 9.6125561e+01 
7.7636719e+01 7.7019459e+01 8.9662749e+01 
7.9101563e+01 7.6910501e+01 8.6703340e+01 
8.2031250e+01 7.6694966e+01 8.0560840e+01 
8.4960938e+01 7.6579849e+01 7.4831354e+01 
8.7890625e+01 7.6423539e+01 7.0183166e+01 
9.0820313e+01 7.6253126e+01 6.5812539e+01 
9.5214844e+01 7.6179727e+01 5.9420371e+01 
9.8144531e+01 7.6097339e+01 5.5660672e+01 
1.0107422e+02 7.6025599e+01 5.1957025e+01 
1.0546875e+02 7.5975053e+01 4.6006447e+01 
1.0839844e+02 7.5849024e+01 4.2592796e+01 
1.1279297e+02 7.5765054e+01 3.8368541e+01 
1.1718750e+02 7.5673201e+01 3.3478661e+01 
1.2011719e+02 7.5621185e+01 3.0984376e+01 
1.2451172e+02 7.5612082e+01 2.5718433e+01 
1.2890625e+02 7.5301588e+01 2.1543827e+01 
1.3330078e+02 7.5064649e+01 1.8924007e+01 
1.3916016e+02 7.5087713e+01 1.5362210e+01 
1.4355469e+02 7.5071326e+01 1.1543817e+01 
1.4794922e+02 7.4898542e+01 8.0711601e+00 
1.5380859e+02 7.4748131e+01 5.1764538e+00 
1.5966797e+02 7.4875082e+01 9.6403932e-01 
1.6552734e+02 7.4596662e+01 -3.5537168e+00 
1.7138672e+02 7.4618148e+01 -6.0446040e+00 
1.7724609e+02 7.4534515e+01 -1.1055374e+01 
1.8310547e+02 7.4225031e+01 -1.4349897e+01 
1.8896484e+02 7.4102251e+01 -1.6332148e+01 
1.9628906e+02 7.4300342e+01 -1.9727476e+01 
2.0361328e+02 7.4112108e+01 -2.6407812e+01 
2.1093750e+02 7.3731363e+01 -2.9780347e+01 
2.1826172e+02 7.3488301e+01 -3.2721572e+01 
2.2558594e+02 7.2997921e+01 -3.7079082e+01 
2.3291016e+02 7.2938079e+01 -3.4378932e+01 
2.4169922e+02 7.3208603e+01 -4.1563314e+01 
2.5048828e+02 7.2602525e+01 -4.4051061e+01 
2.5927734e+02 7.2578968e+01 -4.5644791e+01 
2.6806641e+02 7.2875102e+01 -4.8097815e+01 
2.7685547e+02 7.2725807e+01 -5.4831208e+01 
2.8710938e+02 7.1769639e+01 -5.7602001e+01 
2.9736328e+02 7.1977564e+01 -5.7850459e+01 
3.0761719e+02 7.0936725e+01 -6.2415838e+01 
3.1933594e+02 7.1080971e+01 -5.8540187e+01 
3.2958984e+02 7.0771886e+01 -5.7038490e+01 
3.4130859e+02 7.1727856e+01 -5.5705114e+01 
3.5302734e+02 7.2980459e+01 -6.3356080e+01 
3.6621094e+02 7.3036479e+01 -7.7708875e+01 
3.7939453e+02 7.1788422e+01 -8.5443262e+01 
3.9257813e+02 7.1412705e+01 -9.1181646e+01 
4.0576172e+02 7.1226456e+01 -9.3250580e+01 
4.2041016e+02 7.1810622e+01 -9.9800278e+01 
4.3505859e+02 7.0656201e+01 -1.1340289e+02 
4.5117188e+02 7.0782660e+01 -1.0986490e+02 
4.6582031e+02 7.0067843e+01 -1.2516705e+02 
4.8339844e+02 6.8954620e+01 -1.1567085e+02 
4.9951172e+02 6.9284696e+01 -1.1522812e+02 
5.1708984e+02 7.0044517e+01 -1.2417469e+02 
5.3613281e+02 6.9724754e+01 -1.2926376e+02 
5.5517578e+02 6.9508257e+01 -1.3660218e+02 
5.7421875e+02 6.8534556e+01 -1.4551864e+02 
5.9472656e+02 6.8971957e+01 -1.4035511e+02 
6.1523438e+02 6.9273738e+01 -1.5341793e+02 
6.3720703e+02 6.9588737e+01 -1.5868792e+02 
6.5917969e+02 6.9553545e+01 -1.6825237e+02 
6.8261719e+02 6.9123652e+01 -1.7485638e+02 
7.0751953e+02 6.8441989e+01 1.6643186e+02 
7.3242188e+02 6.8730599e+01 1.6925564e+02 
7.5732422e+02 6.6805030e+01 1.4606515e+02 
7.8515625e+02 6.7697029e+01 1.6002798e+02 
8.1152344e+02 6.4589777e+01 1.4087083e+02 
8.4082031e+02 6.6305293e+01 1.3810677e+02 
8.7011719e+02 6.4622080e+01 1.4500379e+02 
9.0087891e+02 6.4581576e+01 1.3454339e+02 
9.3310547e+02 6.6448630e+01 1.2931195e+02 
9.6533203e+02 6.6340517e+01 1.1453721e+02 
1.0004883e+03 6.4898696e+01 1.0914291e+02 
1.0356445e+03 6.4997880e+01 9.4497410e+01 
1.0722656e+03 6.4542897e+01 9.1512870e+01 
1.1088867e+03 6.4634921e+01 8.9206805e+01 
1.1484375e+03 6.4772156e+01 8.1672022e+01 
1.1894531e+03 6.4752487e+01 6.0909393e+01 
1.2304688e+03 6.4503510e+01 4.9846469e+01 
1.2744141e+03 6.3592900e+01 4.1797060e+01 
1.3198242e+03 6.2792358e+01 3.3220084e+01 
1.3666992e+03 6.2838159e+01 1.8988160e+01 
1.4135742e+03 6.0126980e+01 3.5771507e+00 
1.4633789e+03 5.9398165e+01 9.0444342e+00 
1.5161133e+03 5.8863333e+01 -1.3214066e+01 
1.5688477e+03 5.7709934e+01 -1.4233118e+01 
1.6245117e+03 5.6075868e+01 -2.1915316e+01 
1.6816406e+03 5.7559284e+01 -8.9961778e+00 
1.7416992e+03 5.8246684e+01 -3.3684036e+01 
1.8032227e+03 5.8146352e+01 -4.9181234e+01 
1.8662109e+03 5.0911747e+01 -7.3785718e+01 
1.9321289e+03 5.5107357e+01 -5.2148224e+01 
1.9995117e+03 5.5566176e+01 -6.2797666e+01 
2.0698242e+03 5.4989265e+01 -6.1628383e+01 
2.1430664e+03 5.3417012e+01 -8.7532157e+01 
2.2192383e+03 5.3788612e+01 -5.7823907e+01 
2.2968750e+03 5.8096872e+01 -7.4154268e+01 
2.3789063e+03 5.8204639e+01 -1.0143415e+02 
2.4624023e+03 5.8402003e+01 -1.1402317e+02 
2.5488281e+03 5.7408035e+01 -1.2210145e+02 
2.6396484e+03 5.7997538e+01 -1.5238688e+02 
2.7319336e+03 5.9038891e+01 -1.5211279e+02 
2.8286133e+03 5.3578809e+01 1.5177196e+02 
2.9282227e+03 5.8452120e+01 1.7587299e+02 
3.0307617e+03 5.3833657e+01 1.7094780e+02 
3.1376953e+03 5.7484684e+01 1.5305461e+02 
3.2490234e+03 5.4545148e+01 1.4737529e+02 
3.3632813e+03 5.3583440e+01 1.1848555e+02 
3.4819336e+03 5.3869123e+01 1.1813510e+02 
3.6049805e+03 5.3691923e+01 1.4488199e+02 
3.7324219e+03 5.3056076e+01 9.9317627e+01 
3.8642578e+03 5.6418930e+01 9.7935243e+01 
4.0004883e+03 5.4142667e+01 8.2048898e+01 
4.1411133e+03 5.5479239e+01 8.4996527e+01 
4.2875977e+03 5.4155107e+01 6.0943485e+01 
4.4384766e+03 5.7801836e+01 6.6756369e+01 
4.5952148e+03 5.7474592e+01 2.5450105e+01 
4.7563477e+03 5.4944722e+01 1.8926814e+01 
4.9248047e+03 5.7430598e+01 1.0622628e+01 
5.0976563e+03 5.5851609e+01 -1.8380634e+01 
5.2778320e+03 5.6677666e+01 -3.1674280e+01 
5.4638672e+03 5.5761738e+01 -5.0410921e+01 
5.6572266e+03 5.5552555e+01 -7.3664726e+01 
5.8564453e+03 5.5911013e+01 -9.2473293e+01 
6.0629883e+03 5.5173690e+01 -1.2099921e+02 
6.2768555e+03 5.4633065e+01 -1.3779188e+02 
6.4980469e+03 5.3363781e+01 -1.7278571e+02 
6.7265625e+03 5.4073087e+01 1.7430345e+02 
6.9638672e+03 5.1846192e+01 1.4233073e+02 
7.2099609e+03 5.2535533e+01 1.2275483e+02 
7.4648438e+03 5.1410827e+01 9.9481343e+01 
7.7270508e+03 5.0809217e+01 6.8003794e+01 
7.9995117e+03 5.0412925e+01 3.6817944e+01 
8.2822266e+03 4.9630281e+01 1.6836158e+01 
8.5737305e+03 4.8599193e+01 -1.2659228e+01 
8.8769531e+03 4.6763797e+01 -3.5861308e+01 
9.1889648e+03 4.5959425e+01 -5.3697024e+01 
9.5141602e+03 4.5794663e+01 -9.1408027e+01 
9.8496094e+03 4.5814329e+01 -9.8671013e+01 
1.0196777e+04 4.5844900e+01 -1.2340516e+02 
1.0555664e+04 4.4597119e+01 -1.4436021e+02 
1.0927734e+04 4.4476886e+01 -1.7893026e+02 
1.1312988e+04 4.3540338e+01 1.6222889e+02 
1.1712891e+04 4.4858503e+01 1.3712277e+02 
1.2125977e+04 4.4948150e+01 1.1890281e+02 
1.2553711e+04 4.5798511e+01 8.3648476e+01 
1.2996094e+04 4.6013001e+01 5.0403725e+01 
1.3454590e+04 4.5319364e+01 1.5792687e+01 
1.3929199e+04 4.1675918e+01 -2.8517777e+00 
1.4419922e+04 4.1654337e+01 -1.5824459e+01 
1.4928223e+04 4.0738181e+01 -3.8096615e+01 
1.5455566e+04 3.7825412e+01 -6.7442561e+01 
1.6000488e+04 3.8826069e+01 -5.4801594e+01 
1.6564453e+04 3.9553495e+01 -1.2108062e+02 
1.7148926e+04 3.7367796e+01 -1.6670839e+02 
1.7752441e+04 3.2494808e+01 1.7983411e+02 
1.8379395e+04 3.7531299e+01 1.7958967e+02 
1.9026855e+04 4.2244418e+01 1.3155782e+02 
1.9697754e+04 4.8700223e+01 7.5937404e+01 
1.9999512e+04 4.5005185e+01 5.9893778e+01 
];
