Param_Coord_x1 = 2
Param_Coord_x2 = 120
Param_Coord_x3 = 90
Param_Coord_Type = Spherical
Param_Coord_AngularFormat = degree
Param_Coord_Front = '0,0'
Param_Coord_Top = '90,0'
Data_Domain=Frequency
Data_Phase_AngularFormat=degree
Data_Format = LeveldB_Phase
Data_LevelType=SoundPressure

Curve=[
2.0507813e+01 5.5678194e+01 -6.8786254e+01 
2.1972656e+01 5.7234669e+01 -6.8776278e+01 
2.3437500e+01 5.9244489e+01 -6.8861338e+01 
2.4902344e+01 6.0174644e+01 -7.3620759e+01 
2.6367188e+01 6.2056135e+01 -7.9763756e+01 
2.7832031e+01 6.2821812e+01 -8.4090467e+01 
2.9296875e+01 6.3922719e+01 -8.9467384e+01 
3.0761719e+01 6.4996985e+01 -9.4265965e+01 
3.2226563e+01 6.6043344e+01 -9.9266250e+01 
3.3691406e+01 6.7140919e+01 -1.0473177e+02 
3.5156250e+01 6.8178395e+01 -1.1056242e+02 
3.6621094e+01 6.9164477e+01 -1.1646415e+02 
3.8085938e+01 7.0136538e+01 -1.2265094e+02 
3.9550781e+01 7.1041523e+01 -1.2871009e+02 
4.1015625e+01 7.1985869e+01 -1.3542604e+02 
4.2480469e+01 7.2843576e+01 -1.4233988e+02 
4.3945313e+01 7.3651450e+01 -1.4930449e+02 
4.5410156e+01 7.4404813e+01 -1.5647202e+02 
4.6875000e+01 7.5095987e+01 -1.6358979e+02 
4.8339844e+01 7.5752843e+01 -1.7130548e+02 
5.1269531e+01 7.6724381e+01 1.7270080e+02 
5.2734375e+01 7.7075156e+01 1.6492128e+02 
5.4199219e+01 7.7325960e+01 1.5751524e+02 
5.5664063e+01 7.7500574e+01 1.5047808e+02 
5.8593750e+01 7.7646565e+01 1.3751700e+02 
6.0058594e+01 7.7642629e+01 1.3137881e+02 
6.2988281e+01 7.7526509e+01 1.2038655e+02 
6.4453125e+01 7.7472284e+01 1.1575221e+02 
6.7382813e+01 7.7441121e+01 1.0768191e+02 
6.8847656e+01 7.7404610e+01 1.0388983e+02 
7.1777344e+01 7.7272056e+01 9.6043083e+01 
7.4707031e+01 7.7180242e+01 8.8899336e+01 
7.7636719e+01 7.7103146e+01 8.2952545e+01 
7.9101563e+01 7.7014618e+01 8.0272560e+01 
8.2031250e+01 7.6840408e+01 7.4731216e+01 
8.4960938e+01 7.6764390e+01 6.9541530e+01 
8.7890625e+01 7.6655560e+01 6.5413275e+01 
9.0820313e+01 7.6532281e+01 6.1443082e+01 
9.5214844e+01 7.6468570e+01 5.5569513e+01 
9.8144531e+01 7.6417568e+01 5.2285640e+01 
1.0107422e+02 7.6355200e+01 4.8905748e+01 
1.0546875e+02 7.6301795e+01 4.3743977e+01 
1.0839844e+02 7.6204251e+01 4.0917016e+01 
1.1279297e+02 7.6189088e+01 3.7158137e+01 
1.1718750e+02 7.6118237e+01 3.2906899e+01 
1.2011719e+02 7.6102215e+01 3.0356944e+01 
1.2451172e+02 7.6014185e+01 2.6033764e+01 
1.2890625e+02 7.5728989e+01 2.2615019e+01 
1.3330078e+02 7.5640194e+01 2.1284441e+01 
1.3916016e+02 7.5743610e+01 1.6941957e+01 
1.4355469e+02 7.5633975e+01 1.3566873e+01 
1.4794922e+02 7.5448952e+01 1.0987709e+01 
1.5380859e+02 7.5326603e+01 8.7484587e+00 
1.5966797e+02 7.5385069e+01 5.2887563e+00 
1.6552734e+02 7.5189254e+01 2.5835113e+00 
1.7138672e+02 7.5357392e+01 -4.3570678e-01 
1.7724609e+02 7.5114664e+01 -5.1264486e+00 
1.8310547e+02 7.4714799e+01 -7.4127560e+00 
1.8896484e+02 7.4624968e+01 -7.4524527e+00 
1.9628906e+02 7.4905435e+01 -1.1628890e+01 
2.0361328e+02 7.4566853e+01 -1.6053892e+01 
2.1093750e+02 7.4277090e+01 -1.8845093e+01 
2.1826172e+02 7.4083838e+01 -2.0455238e+01 
2.2558594e+02 7.3578116e+01 -2.2886976e+01 
2.3291016e+02 7.4048584e+01 -2.1407688e+01 
2.4169922e+02 7.3703058e+01 -2.8224929e+01 
2.5048828e+02 7.3505970e+01 -2.8705382e+01 
2.5927734e+02 7.3476272e+01 -2.9350243e+01 
2.6806641e+02 7.3778536e+01 -3.4223560e+01 
2.7685547e+02 7.3193037e+01 -3.8694594e+01 
2.8710938e+02 7.2508923e+01 -3.6885710e+01 
2.9736328e+02 7.2957656e+01 -4.0515016e+01 
3.0761719e+02 7.1941843e+01 -4.0944774e+01 
3.1933594e+02 7.2570494e+01 -4.0218891e+01 
3.2958984e+02 7.2141430e+01 -4.1644043e+01 
3.4130859e+02 7.2922752e+01 -4.5034596e+01 
3.5302734e+02 7.2725905e+01 -5.4562312e+01 
3.6621094e+02 7.1652518e+01 -6.3628507e+01 
3.7939453e+02 7.0156253e+01 -6.3879580e+01 
3.9257813e+02 6.9358477e+01 -6.2970037e+01 
4.0576172e+02 6.9991884e+01 -6.5532481e+01 
4.2041016e+02 6.8492888e+01 -7.3627726e+01 
4.3505859e+02 6.7714530e+01 -6.2166103e+01 
4.5117188e+02 6.8954070e+01 -6.5400649e+01 
4.6582031e+02 6.8255421e+01 -6.6415635e+01 
4.8339844e+02 6.9487156e+01 -7.0935989e+01 
4.9951172e+02 6.7168206e+01 -7.1056810e+01 
5.1708984e+02 6.7810849e+01 -6.7001742e+01 
5.3613281e+02 6.8326213e+01 -6.7037309e+01 
5.5517578e+02 6.7633751e+01 -7.8722736e+01 
5.7421875e+02 6.6653745e+01 -6.4325337e+01 
5.9472656e+02 6.8639487e+01 -7.7302697e+01 
6.1523438e+02 6.6731606e+01 -7.6781797e+01 
6.3720703e+02 6.7497403e+01 -7.7298461e+01 
6.5917969e+02 6.8031368e+01 -7.7626137e+01 
6.8261719e+02 6.7234296e+01 -8.4133317e+01 
7.0751953e+02 6.8082502e+01 -7.9889933e+01 
7.3242188e+02 6.7346486e+01 -9.0367034e+01 
7.5732422e+02 6.9172493e+01 -8.7444602e+01 
7.8515625e+02 6.7060379e+01 -1.0376616e+02 
8.1152344e+02 6.8139737e+01 -9.9340259e+01 
8.4082031e+02 6.8444223e+01 -9.9576038e+01 
8.7011719e+02 6.7295821e+01 -1.1969037e+02 
9.0087891e+02 6.7810714e+01 -1.0483069e+02 
9.3310547e+02 6.8533706e+01 -1.1080436e+02 
9.6533203e+02 6.7894440e+01 -1.2784867e+02 
1.0004883e+03 6.8283569e+01 -1.3097945e+02 
1.0356445e+03 6.7898381e+01 -1.4101967e+02 
1.0722656e+03 6.6906400e+01 -1.4556691e+02 
1.1088867e+03 6.6607364e+01 -1.5429301e+02 
1.1484375e+03 6.5463878e+01 -1.5350613e+02 
1.1894531e+03 6.5924458e+01 -1.6449741e+02 
1.2304688e+03 6.5988811e+01 -1.6203419e+02 
1.2744141e+03 6.4999636e+01 1.7756776e+02 
1.3198242e+03 6.5196791e+01 1.7916564e+02 
1.3666992e+03 6.4192093e+01 1.6922999e+02 
1.4135742e+03 6.4484079e+01 1.5702277e+02 
1.4633789e+03 6.0996797e+01 1.5232218e+02 
1.5161133e+03 6.1681835e+01 1.4669612e+02 
1.5688477e+03 6.2408082e+01 1.4213628e+02 
1.6245117e+03 6.0174099e+01 1.4080764e+02 
1.6816406e+03 5.8351751e+01 1.1776718e+02 
1.7416992e+03 5.7476770e+01 1.3398013e+02 
1.8032227e+03 5.7816851e+01 1.4939187e+02 
1.8662109e+03 5.8758653e+01 1.3857263e+02 
1.9321289e+03 6.0564382e+01 1.3441221e+02 
1.9995117e+03 6.1619367e+01 1.2610135e+02 
2.0698242e+03 6.2041177e+01 1.1476888e+02 
2.1430664e+03 6.3120558e+01 1.0200356e+02 
2.2192383e+03 6.1603471e+01 8.7388383e+01 
2.2968750e+03 6.1931635e+01 8.3652295e+01 
2.3789063e+03 6.1745645e+01 7.4706316e+01 
2.4624023e+03 6.2194425e+01 5.7353984e+01 
2.5488281e+03 6.2173663e+01 5.4678828e+01 
2.6396484e+03 6.0962145e+01 4.4072157e+01 
2.7319336e+03 6.0930568e+01 3.9429112e+01 
2.8286133e+03 6.0944078e+01 3.9418423e+01 
2.9282227e+03 6.3250970e+01 2.8758179e+01 
3.0307617e+03 6.0521251e+01 1.1605791e+01 
3.1376953e+03 6.1218817e+01 2.0735150e+01 
3.2490234e+03 6.3162650e+01 8.1737962e+00 
3.3632813e+03 6.0817489e+01 -1.1627395e+00 
3.4819336e+03 6.2212358e+01 -5.0624752e+00 
3.6049805e+03 6.2541838e+01 -1.6291799e+01 
3.7324219e+03 6.0301080e+01 -1.7780668e+01 
3.8642578e+03 6.1169774e+01 -3.8635993e+01 
4.0004883e+03 5.9889086e+01 -3.5453674e+01 
4.1411133e+03 5.9286426e+01 -5.1592530e+01 
4.2875977e+03 5.5818971e+01 -2.8565803e+01 
4.4384766e+03 5.8798430e+01 -4.6410265e+01 
4.5952148e+03 5.6896515e+01 -3.8078899e+01 
4.7563477e+03 5.8487493e+01 -4.6165605e+01 
4.9248047e+03 5.9607986e+01 -4.6228786e+01 
5.0976563e+03 5.8291270e+01 -6.2103906e+01 
5.2778320e+03 5.9675859e+01 -6.5355724e+01 
5.4638672e+03 5.8102867e+01 -6.3913410e+01 
5.6572266e+03 5.8211728e+01 -8.6719943e+01 
5.8564453e+03 5.7989889e+01 -8.2354518e+01 
6.0629883e+03 5.7236614e+01 -8.9293554e+01 
6.2768555e+03 5.6376581e+01 -9.5064542e+01 
6.4980469e+03 5.6559220e+01 -9.9436229e+01 
6.7265625e+03 5.5464073e+01 -1.0278804e+02 
6.9638672e+03 5.4945355e+01 -1.1293221e+02 
7.2099609e+03 5.4716020e+01 -1.1779496e+02 
7.4648438e+03 5.3343537e+01 -1.2291283e+02 
7.7270508e+03 5.2715809e+01 -1.3198296e+02 
7.9995117e+03 5.2665005e+01 -1.2772321e+02 
8.2822266e+03 5.2002112e+01 -1.2926402e+02 
8.5737305e+03 5.0935684e+01 -1.4230452e+02 
8.8769531e+03 5.0927076e+01 -1.4450733e+02 
9.1889648e+03 5.1461053e+01 -1.4543161e+02 
9.5141602e+03 5.0905210e+01 -1.5244688e+02 
9.8496094e+03 4.9504795e+01 -1.6220901e+02 
1.0196777e+04 4.8904767e+01 -1.6375326e+02 
1.0555664e+04 4.8621868e+01 -1.6565928e+02 
1.0927734e+04 4.7934745e+01 -1.6819637e+02 
1.1312988e+04 4.8030534e+01 -1.6318943e+02 
1.1712891e+04 4.8758557e+01 -1.6790380e+02 
1.2125977e+04 4.9398316e+01 -1.7382162e+02 
1.2553711e+04 4.9467928e+01 1.7420746e+02 
1.2996094e+04 4.8556206e+01 1.6633959e+02 
1.3454590e+04 4.7997532e+01 1.5639396e+02 
1.3929199e+04 4.6279966e+01 1.5155617e+02 
1.4419922e+04 4.5834157e+01 1.4303693e+02 
1.4928223e+04 4.4827890e+01 1.3128970e+02 
1.5455566e+04 4.2386603e+01 1.3006883e+02 
1.6000488e+04 4.3591178e+01 1.3200424e+02 
1.6564453e+04 4.4731490e+01 1.1671961e+02 
1.7148926e+04 4.4270096e+01 9.9307109e+01 
1.7752441e+04 4.2194535e+01 9.0321532e+01 
1.8379395e+04 4.0447910e+01 8.8519644e+01 
1.9026855e+04 3.8200062e+01 8.6157076e+01 
1.9697754e+04 3.9783513e+01 1.1496294e+02 
1.9999512e+04 4.2386979e+01 1.2479231e+02 
];
