Param_Coord_x1 = 3
Param_Coord_x2 = 330
Param_Coord_x3 = 0
Param_Coord_Type = Spherical
Param_Coord_AngularFormat = degree
Param_Coord_Front = '0,0'
Param_Coord_Top = '90,0'
Data_Domain=Frequency
Data_Phase_AngularFormat=degree
Data_Format = LeveldB_Phase
Data_LevelType=SoundPressure

Curve=[
2.0600000e+01 6.9209394e+01 8.9122521e+01 
2.1200000e+01 6.9928255e+01 8.6303692e+01 
2.1800000e+01 7.0627051e+01 8.3562995e+01 
2.2400000e+01 7.1321500e+01 8.0277701e+01 
2.3000000e+01 7.2003423e+01 7.6832134e+01 
2.3600000e+01 7.2657463e+01 7.3510504e+01 
2.4300000e+01 7.3367867e+01 6.9850273e+01 
2.5000000e+01 7.4078058e+01 6.6209682e+01 
2.5800000e+01 7.5004277e+01 6.1590450e+01 
2.6500000e+01 7.5719388e+01 5.7357954e+01 
2.7200000e+01 7.6112068e+01 5.1945239e+01 
2.8000000e+01 7.6613763e+01 4.6284948e+01 
2.9000000e+01 7.7521990e+01 4.1087922e+01 
3.0000000e+01 7.8402167e+01 3.5718777e+01 
3.0700000e+01 7.9001806e+01 3.1963736e+01 
3.1500000e+01 7.9608200e+01 2.8178486e+01 
3.2500000e+01 8.0347020e+01 2.3405560e+01 
3.3500000e+01 8.1085814e+01 1.8213858e+01 
3.4500000e+01 8.1777551e+01 1.2913300e+01 
3.5500000e+01 8.2402362e+01 7.6173252e+00 
3.6500000e+01 8.2932153e+01 2.3072888e+00 
3.7500000e+01 8.3391428e+01 -2.8341174e+00 
3.8700000e+01 8.3890999e+01 -8.7829678e+00 
4.0000000e+01 8.4374051e+01 -1.4960492e+01 
4.1200000e+01 8.4770369e+01 -2.0448322e+01 
4.2500000e+01 8.5116412e+01 -2.6230102e+01 
4.3700000e+01 8.5330225e+01 -3.2128777e+01 
4.5000000e+01 8.5623732e+01 -3.7332212e+01 
4.6200000e+01 8.5850254e+01 -4.1921593e+01 
4.7500000e+01 8.6041256e+01 -4.6709439e+01 
4.8700000e+01 8.6187587e+01 -5.0840764e+01 
5.0000000e+01 8.6326145e+01 -5.5075966e+01 
5.1500000e+01 8.6477917e+01 -5.9793990e+01 
5.3000000e+01 8.6601088e+01 -6.4156311e+01 
5.4500000e+01 8.6698184e+01 -6.8257536e+01 
5.6000000e+01 8.6770377e+01 -7.2190707e+01 
5.8000000e+01 8.6824608e+01 -7.7095189e+01 
6.0000000e+01 8.6850301e+01 -8.1689102e+01 
6.1500000e+01 8.6875091e+01 -8.4873171e+01 
6.3000000e+01 8.6899948e+01 -8.7976332e+01 
6.5000000e+01 8.6901498e+01 -9.1960011e+01 
6.7000000e+01 8.6785583e+01 -9.5985539e+01 
6.9000000e+01 8.6737206e+01 -9.9619173e+01 
7.1000000e+01 8.6691574e+01 -1.0301793e+02 
7.3000000e+01 8.6643496e+01 -1.0625879e+02 
7.5000000e+01 8.6590922e+01 -1.0934074e+02 
7.7500000e+01 8.6502309e+01 -1.1285191e+02 
8.0000000e+01 8.6418602e+01 -1.1601124e+02 
8.2500000e+01 8.6377270e+01 -1.1913078e+02 
8.5000000e+01 8.6338669e+01 -1.2221161e+02 
8.7500000e+01 8.6303748e+01 -1.2473959e+02 
9.0000000e+01 8.6229067e+01 -1.2715276e+02 
9.2500000e+01 8.6147300e+01 -1.2944534e+02 
9.5000000e+01 8.6066898e+01 -1.3165567e+02 
9.7500000e+01 8.6015967e+01 -1.3343342e+02 
1.0000000e+02 8.5952852e+01 -1.3526390e+02 
1.0300000e+02 8.5839666e+01 -1.3701236e+02 
1.0600000e+02 8.5743465e+01 -1.3830443e+02 
1.0900000e+02 8.5812251e+01 -1.3923755e+02 
1.1200000e+02 8.5943722e+01 -1.4182892e+02 
1.1500000e+02 8.5910538e+01 -1.4445070e+02 
1.1800000e+02 8.5768180e+01 -1.4622834e+02 
1.2200000e+02 8.5522931e+01 -1.4691779e+02 
1.2500000e+02 8.5448011e+01 -1.4842723e+02 
1.2800000e+02 8.5370381e+01 -1.4968979e+02 
1.3200000e+02 8.5347025e+01 -1.5052921e+02 
1.3600000e+02 8.5307134e+01 -1.5186734e+02 
1.4000000e+02 8.5238326e+01 -1.5340151e+02 
1.4500000e+02 8.5127136e+01 -1.5455185e+02 
1.5000000e+02 8.5095471e+01 -1.5546492e+02 
1.5500000e+02 8.5082139e+01 -1.5650601e+02 
1.6000000e+02 8.5057465e+01 -1.5745478e+02 
1.6500000e+02 8.5172085e+01 -1.5771912e+02 
1.7000000e+02 8.5274980e+01 -1.6038036e+02 
1.7500000e+02 8.5065678e+01 -1.6182503e+02 
1.8000000e+02 8.4882315e+01 -1.6150937e+02 
1.8500000e+02 8.5019789e+01 -1.5989301e+02 
1.9000000e+02 8.5469444e+01 -1.5912608e+02 
1.9500000e+02 8.5842787e+01 -1.6361603e+02 
2.0000000e+02 8.5793105e+01 -1.6646137e+02 
2.0600000e+02 8.5512163e+01 -1.6858300e+02 
2.1200000e+02 8.5229016e+01 -1.6949246e+02 
2.1800000e+02 8.5269648e+01 -1.6901394e+02 
2.2400000e+02 8.5562052e+01 -1.6839938e+02 
2.3000000e+02 8.5818461e+01 -1.7309642e+02 
2.3600000e+02 8.5645587e+01 -1.7619084e+02 
2.4300000e+02 8.5098763e+01 -1.7614176e+02 
2.5000000e+02 8.4964302e+01 -1.7643325e+02 
2.5800000e+02 8.5303588e+01 -1.7737095e+02 
2.6500000e+02 8.4976221e+01 1.7874522e+02 
2.7200000e+02 8.4453662e+01 -1.7966495e+02 
2.8000000e+02 8.4499256e+01 -1.7429741e+02 
2.9000000e+02 8.5553628e+01 -1.7464565e+02 
3.0000000e+02 8.5689695e+01 1.7656405e+02 
3.0700000e+02 8.5443320e+01 1.7109453e+02 
3.1500000e+02 8.4515117e+01 1.7005103e+02 
3.2500000e+02 8.4060342e+01 1.7423851e+02 
3.3500000e+02 8.4257587e+01 1.7576176e+02 
3.4500000e+02 8.4326017e+01 1.7142735e+02 
3.5500000e+02 8.4038680e+01 1.6755393e+02 
3.6500000e+02 8.3624401e+01 1.6905195e+02 
3.7500000e+02 8.3426791e+01 1.7294742e+02 
3.8700000e+02 8.4076999e+01 1.7238332e+02 
4.0000000e+02 8.3616858e+01 1.6506751e+02 
4.1200000e+02 8.2716509e+01 1.6442140e+02 
4.2500000e+02 8.2653233e+01 1.6880178e+02 
4.3700000e+02 8.2804378e+01 1.6875251e+02 
4.5000000e+02 8.1862183e+01 1.7438211e+02 
4.6200000e+02 8.2384298e+01 1.7845876e+02 
4.7500000e+02 8.2578267e+01 -1.7972390e+02 
4.8700000e+02 8.2622080e+01 -1.7921538e+02 
5.0000000e+02 8.2808084e+01 -1.7916692e+02 
5.1500000e+02 8.2387292e+01 -1.7702384e+02 
5.3000000e+02 8.2690477e+01 -1.7337368e+02 
5.4500000e+02 8.3543848e+01 -1.7275598e+02 
5.6000000e+02 8.4415364e+01 -1.7820775e+02 
5.8000000e+02 8.4491852e+01 1.6765154e+02 
6.0000000e+02 8.3783181e+01 1.6331009e+02 
6.1500000e+02 8.3273996e+01 1.6125813e+02 
6.3000000e+02 8.2586516e+01 1.6157314e+02 
6.5000000e+02 8.1942249e+01 1.6079276e+02 
6.7000000e+02 8.1272827e+01 1.6531011e+02 
6.9000000e+02 8.0900337e+01 1.7157832e+02 
7.1000000e+02 8.1132209e+01 1.7254268e+02 
7.3000000e+02 8.0433375e+01 1.7413913e+02 
7.5000000e+02 8.1109657e+01 -1.7958244e+02 
7.7500000e+02 8.1680160e+01 -1.7752174e+02 
8.0000000e+02 8.2054265e+01 -1.7748329e+02 
8.2500000e+02 8.2805006e+01 -1.7713344e+02 
8.5000000e+02 8.3606071e+01 -1.7952941e+02 
8.7500000e+02 8.3878294e+01 1.7401558e+02 
9.0000000e+02 8.3775209e+01 1.6915648e+02 
9.2500000e+02 8.3363006e+01 1.7146465e+02 
9.5000000e+02 8.3176718e+01 1.6710809e+02 
9.7500000e+02 8.2995308e+01 1.6323474e+02 
1.0000000e+03 8.2650855e+01 1.6512027e+02 
1.0300000e+03 8.2075391e+01 1.6727315e+02 
1.0600000e+03 8.1984890e+01 1.6836015e+02 
1.0900000e+03 8.2247544e+01 1.7120725e+02 
1.1200000e+03 8.2717828e+01 1.7353081e+02 
1.1500000e+03 8.3243793e+01 1.7255440e+02 
1.1800000e+03 8.3503012e+01 1.6845966e+02 
1.2200000e+03 8.3540267e+01 1.6568978e+02 
1.2500000e+03 8.3824613e+01 1.6587034e+02 
1.2800000e+03 8.4296006e+01 1.6604810e+02 
1.3200000e+03 8.5027161e+01 1.6139227e+02 
1.3600000e+03 8.5103353e+01 1.5352544e+02 
1.4000000e+03 8.4860404e+01 1.4711075e+02 
1.4500000e+03 8.4495427e+01 1.4188072e+02 
1.5000000e+03 8.3994222e+01 1.3926796e+02 
1.5500000e+03 8.3831632e+01 1.3780284e+02 
1.6000000e+03 8.4039678e+01 1.3432812e+02 
1.6500000e+03 8.4146788e+01 1.2830204e+02 
1.7000000e+03 8.3936274e+01 1.2219963e+02 
1.7500000e+03 8.3549898e+01 1.1783198e+02 
1.8000000e+03 8.3266276e+01 1.1311891e+02 
1.8500000e+03 8.3103967e+01 1.1071644e+02 
1.9000000e+03 8.3311423e+01 1.0773551e+02 
1.9500000e+03 8.3495634e+01 1.0308465e+02 
2.0000000e+03 8.3347025e+01 9.6125048e+01 
2.0600000e+03 8.3685739e+01 8.9226928e+01 
2.1200000e+03 8.3659246e+01 8.0028915e+01 
2.1800000e+03 8.3616776e+01 7.0707349e+01 
2.2400000e+03 8.3403956e+01 6.1089457e+01 
2.3000000e+03 8.2807891e+01 5.0783093e+01 
2.3600000e+03 8.2059530e+01 4.4324909e+01 
2.4300000e+03 8.1743442e+01 3.8617146e+01 
2.5000000e+03 8.1452300e+01 2.8521474e+01 
2.5800000e+03 8.0743402e+01 1.3350032e+01 
2.6500000e+03 7.9689787e+01 2.8850849e+00 
2.7200000e+03 7.7734851e+01 -1.2343179e+00 
2.8000000e+03 7.6833710e+01 -1.7695229e+00 
2.9000000e+03 7.4820409e+01 -1.4800574e+01 
3.0000000e+03 7.0108280e+01 -2.8903731e+01 
3.0700000e+03 6.5597179e+01 -2.6227001e+01 
3.1500000e+03 6.1391635e+01 -3.8321890e+00 
3.2500000e+03 6.5959190e+01 8.6478140e+01 
3.3500000e+03 7.1511082e+01 8.0958013e+01 
3.4500000e+03 7.4545325e+01 6.9208118e+01 
3.5500000e+03 7.6129828e+01 6.5297066e+01 
3.6500000e+03 7.7755078e+01 6.1911909e+01 
3.7500000e+03 7.9752150e+01 5.3675079e+01 
3.8700000e+03 8.0709152e+01 4.0477839e+01 
4.0000000e+03 8.1789846e+01 3.5067526e+01 
4.1200000e+03 8.2614437e+01 2.2880691e+01 
4.2500000e+03 8.2965896e+01 1.1338947e+01 
4.3700000e+03 8.2970103e+01 3.3445114e+00 
4.5000000e+03 8.2930128e+01 -5.1317625e+00 
4.6200000e+03 8.2834955e+01 -1.3275458e+01 
4.7500000e+03 8.2230147e+01 -1.9490815e+01 
4.8700000e+03 8.2176311e+01 -2.4393067e+01 
5.0000000e+03 8.2014673e+01 -2.8803747e+01 
5.1500000e+03 8.1831806e+01 -3.3136636e+01 
5.3000000e+03 8.1896474e+01 -3.7813495e+01 
5.4500000e+03 8.2191202e+01 -4.5057787e+01 
5.6000000e+03 8.2241620e+01 -5.0308426e+01 
5.8000000e+03 8.2121941e+01 -6.3397024e+01 
6.0000000e+03 8.1621711e+01 -7.3235306e+01 
6.1500000e+03 8.1079402e+01 -7.9357636e+01 
6.3000000e+03 8.0512178e+01 -8.5370076e+01 
6.5000000e+03 7.9929851e+01 -9.0573350e+01 
6.7000000e+03 7.9043198e+01 -9.6096592e+01 
6.9000000e+03 7.8981939e+01 -1.0048753e+02 
7.1000000e+03 7.8906719e+01 -1.0560140e+02 
7.3000000e+03 7.8664399e+01 -1.1169581e+02 
7.5000000e+03 7.8313476e+01 -1.1799816e+02 
7.7500000e+03 7.7959618e+01 -1.2329426e+02 
8.0000000e+03 7.7605994e+01 -1.2990577e+02 
8.2500000e+03 7.7300783e+01 -1.3660358e+02 
8.5000000e+03 7.7052257e+01 -1.4190691e+02 
8.7500000e+03 7.6904162e+01 -1.4698656e+02 
9.0000000e+03 7.6999465e+01 -1.5289587e+02 
9.2500000e+03 7.7161357e+01 -1.6077897e+02 
9.5000000e+03 7.6897213e+01 -1.7207727e+02 
9.7500000e+03 7.6113043e+01 -1.7946566e+02 
1.0000000e+04 7.5473238e+01 1.7373759e+02 
1.0300000e+04 7.4906772e+01 1.6517537e+02 
1.0600000e+04 7.4280686e+01 1.5540123e+02 
1.0900000e+04 7.2615009e+01 1.4601630e+02 
1.1200000e+04 7.2305614e+01 1.4162611e+02 
1.1500000e+04 7.1362120e+01 1.2733601e+02 
1.1800000e+04 6.9255905e+01 1.1154083e+02 
1.2200000e+04 6.4715787e+01 1.0566106e+02 
1.2500000e+04 6.3073833e+01 1.0282976e+02 
1.2800000e+04 5.8901344e+01 9.8401415e+01 
1.3200000e+04 4.9453334e+01 8.6991237e+01 
1.3600000e+04 4.5942336e+01 1.6610497e+01 
1.4000000e+04 5.6273146e+01 -1.2014046e+02 
1.4500000e+04 6.0548483e+01 -1.3702477e+02 
1.5000000e+04 6.3789779e+01 -1.4003025e+02 
1.5500000e+04 6.6889573e+01 -1.4880076e+02 
1.6000000e+04 6.9847230e+01 -1.6944584e+02 
1.6500000e+04 7.1061812e+01 1.7030467e+02 
1.7000000e+04 7.1592959e+01 1.5203284e+02 
1.7500000e+04 7.1901462e+01 1.3417117e+02 
1.8000000e+04 7.1469598e+01 1.1595049e+02 
1.8500000e+04 7.0157119e+01 1.0073328e+02 
1.9000000e+04 6.8246211e+01 9.6011488e+01 
1.9500000e+04 6.8402545e+01 9.3379945e+01 
];
