Freq[Hz]     dBSPL  Phase[Deg]
2.0507813e+01 6.5332136e+01 8.8223114e+01 
2.1972656e+01 6.9504338e+01 8.3549056e+01 
2.3437500e+01 7.1331334e+01 7.0796478e+01 
2.4902344e+01 7.3011634e+01 6.5070446e+01 
2.6367188e+01 7.4738657e+01 5.5328165e+01 
2.7832031e+01 7.6202585e+01 4.5520230e+01 
2.9296875e+01 7.7227020e+01 3.5808340e+01 
3.0761719e+01 7.8268283e+01 2.6618697e+01 
3.2226563e+01 7.9194212e+01 1.7803123e+01 
3.3691406e+01 8.0022632e+01 9.2157893e+00 
3.5156250e+01 8.0677065e+01 9.8849716e-01 
3.6621094e+01 8.1243779e+01 -6.5835340e+00 
3.8085938e+01 8.1737261e+01 -1.3722975e+01 
3.9550781e+01 8.2179663e+01 -2.0312765e+01 
4.1015625e+01 8.2568599e+01 -2.6440534e+01 
4.2480469e+01 8.2931868e+01 -3.2220863e+01 
4.3945313e+01 8.3239243e+01 -3.7545853e+01 
4.5410156e+01 8.3534175e+01 -4.2713584e+01 
4.6875000e+01 8.3810141e+01 -4.7556098e+01 
4.8339844e+01 8.4062902e+01 -5.2076604e+01 
5.1269531e+01 8.4506733e+01 -6.0585375e+01 
5.2734375e+01 8.4716093e+01 -6.4599240e+01 
5.4199219e+01 8.4918662e+01 -6.8436400e+01 
5.5664063e+01 8.5111219e+01 -7.2102079e+01 
5.8593750e+01 8.5463809e+01 -7.9119495e+01 
6.0058594e+01 8.5617497e+01 -8.2478639e+01 
6.2988281e+01 8.5914016e+01 -8.8892706e+01 
6.4453125e+01 8.6050867e+01 -9.1972360e+01 
6.7382813e+01 8.6322142e+01 -9.7982713e+01 
6.8847656e+01 8.6433955e+01 -1.0091480e+02 
7.1777344e+01 8.6622182e+01 -1.0658051e+02 
7.4707031e+01 8.6774553e+01 -1.1206832e+02 
7.7636719e+01 8.6916557e+01 -1.1719660e+02 
7.9101563e+01 8.6964787e+01 -1.1969590e+02 
8.2031250e+01 8.7026100e+01 -1.2449845e+02 
8.4960938e+01 8.7079863e+01 -1.2911051e+02 
8.7890625e+01 8.7127655e+01 -1.3347692e+02 
9.0820313e+01 8.7139401e+01 -1.3760184e+02 
9.5214844e+01 8.7162520e+01 -1.4347741e+02 
9.8144531e+01 8.7215344e+01 -1.4729486e+02 
1.0107422e+02 8.7202009e+01 -1.5112477e+02 
1.0546875e+02 8.7098011e+01 -1.5617816e+02 
1.0839844e+02 8.7085576e+01 -1.5904907e+02 
1.1279297e+02 8.7140738e+01 -1.6424028e+02 
1.1718750e+02 8.6993841e+01 -1.6949523e+02 
1.2011719e+02 8.6840779e+01 -1.7239324e+02 
1.2451172e+02 8.6620107e+01 -1.7571746e+02 
1.2890625e+02 8.6553771e+01 -1.7869866e+02 
1.3330078e+02 8.6578092e+01 1.7759628e+02 
1.3916016e+02 8.6307286e+01 1.7129179e+02 
1.4355469e+02 8.5973383e+01 1.6847215e+02 
1.4794922e+02 8.5757200e+01 1.6658381e+02 
1.5380859e+02 8.5661747e+01 1.6395006e+02 
1.5966797e+02 8.5661151e+01 1.6086747e+02 
1.6552734e+02 8.5692856e+01 1.5684887e+02 
1.7138672e+02 8.5525817e+01 1.5143596e+02 
1.7724609e+02 8.5046690e+01 1.4789968e+02 
1.8310547e+02 8.4734018e+01 1.4676505e+02 
1.8896484e+02 8.4864478e+01 1.4497616e+02 
1.9628906e+02 8.4890400e+01 1.3889185e+02 
2.0361328e+02 8.4362453e+01 1.3395867e+02 
2.1093750e+02 8.3804198e+01 1.3153848e+02 
2.1826172e+02 8.3526170e+01 1.3072714e+02 
2.2558594e+02 8.3653750e+01 1.3000965e+02 
2.3291016e+02 8.3717584e+01 1.2502029e+02 
2.4169922e+02 8.3482808e+01 1.2230061e+02 
2.5048828e+02 8.3569132e+01 1.1939330e+02 
2.5927734e+02 8.3895960e+01 1.1288935e+02 
2.6806641e+02 8.3256610e+01 1.0453296e+02 
2.7685547e+02 8.2514837e+01 1.0266766e+02 
2.8710938e+02 8.2365450e+01 1.0157185e+02 
2.9736328e+02 8.2319505e+01 9.6754944e+01 
3.0761719e+02 8.2313990e+01 9.4026178e+01 
3.1933594e+02 8.1957677e+01 8.7406654e+01 
3.2958984e+02 8.2183907e+01 8.6312588e+01 
3.4130859e+02 8.2667671e+01 7.7373694e+01 
3.5302734e+02 8.2189074e+01 6.7445874e+01 
3.6621094e+02 8.1238873e+01 6.3839790e+01 
3.7939453e+02 8.1771300e+01 6.0002897e+01 
3.9257813e+02 8.1926405e+01 4.8855138e+01 
4.0576172e+02 8.1390709e+01 3.9677521e+01 
4.2041016e+02 8.0779262e+01 3.3075842e+01 
4.3505859e+02 8.0635438e+01 2.4571013e+01 
4.5117188e+02 7.9577254e+01 1.2530150e+01 
4.6582031e+02 7.8886282e+01 1.5762475e+01 
4.8339844e+02 7.9133429e+01 1.0732394e+01 
4.9951172e+02 7.9163370e+01 4.8614250e+00 
5.1708984e+02 7.8457933e+01 2.1684575e+00 
5.3613281e+02 7.7801646e+01 1.4381626e+00 
5.5517578e+02 7.9456305e+01 2.3453778e-01 
5.7421875e+02 8.0203825e+01 -1.0643115e+01 
5.9472656e+02 8.0398084e+01 -1.6177151e+01 
6.1523438e+02 8.0935294e+01 -2.3299384e+01 
6.3720703e+02 8.1637416e+01 -3.1847672e+01 
6.5917969e+02 8.2332515e+01 -3.9803759e+01 
6.8261719e+02 8.2337618e+01 -4.9138077e+01 
7.0751953e+02 8.2481342e+01 -5.6835305e+01 
7.3242188e+02 8.2336514e+01 -6.2128555e+01 
7.5732422e+02 8.2677816e+01 -7.2636898e+01 
7.8515625e+02 8.3346541e+01 -7.4235991e+01 
8.1152344e+02 8.3148314e+01 -8.4212378e+01 
8.4082031e+02 8.3320827e+01 -9.2588091e+01 
8.7011719e+02 8.3226084e+01 -9.7677562e+01 
9.0087891e+02 8.2905051e+01 -1.0661639e+02 
9.3310547e+02 8.3518577e+01 -1.1249840e+02 
9.6533203e+02 8.3177814e+01 -1.1893739e+02 
1.0004883e+03 8.2236490e+01 -1.2502615e+02 
1.0356445e+03 8.1969367e+01 -1.2791311e+02 
1.0722656e+03 8.0525130e+01 -1.2349555e+02 
1.1088867e+03 8.0079123e+01 -1.2209663e+02 
1.1484375e+03 8.0707533e+01 -1.1598974e+02 
1.1894531e+03 8.1452737e+01 -1.1716818e+02 
1.2304688e+03 8.1723584e+01 -1.2145475e+02 
1.2744141e+03 8.2463534e+01 -1.2772359e+02 
1.3198242e+03 8.2487645e+01 -1.3107325e+02 
1.3666992e+03 8.2303563e+01 -1.3362463e+02 
1.4135742e+03 8.3479169e+01 -1.3281898e+02 
1.4633789e+03 8.4649597e+01 -1.4010900e+02 
1.5161133e+03 8.4894574e+01 -1.5207924e+02 
1.5688477e+03 8.5125036e+01 -1.5858886e+02 
1.6245117e+03 8.5308469e+01 -1.6597253e+02 
1.6816406e+03 8.5734434e+01 -1.7347074e+02 
1.7416992e+03 8.6129133e+01 1.7743340e+02 
1.8032227e+03 8.6447452e+01 1.6410780e+02 
1.8662109e+03 8.6299056e+01 1.5305786e+02 
1.9321289e+03 8.6238865e+01 1.4619007e+02 
1.9995117e+03 8.6527616e+01 1.3680642e+02 
2.0698242e+03 8.6544140e+01 1.2019685e+02 
2.1430664e+03 8.5301750e+01 1.0832599e+02 
2.2192383e+03 8.4661628e+01 1.0305106e+02 
2.2968750e+03 8.4809082e+01 9.7733732e+01 
2.3789063e+03 8.5751663e+01 8.8029981e+01 
2.4624023e+03 8.5083725e+01 7.3814064e+01 
2.5488281e+03 8.4768696e+01 6.5279069e+01 
2.6396484e+03 8.4887993e+01 5.6935877e+01 
2.7319336e+03 8.4791491e+01 5.1864116e+01 
2.8286133e+03 8.4896085e+01 4.1747347e+01 
2.9282227e+03 8.4790526e+01 3.0342726e+01 
3.0307617e+03 8.4062903e+01 2.6606305e+01 
3.1376953e+03 8.4882424e+01 1.9938459e+01 
3.2490234e+03 8.4494956e+01 5.2033763e+00 
3.3632813e+03 8.3068341e+01 2.0412420e-01 
3.4819336e+03 8.2912659e+01 -9.9972942e-01 
3.6049805e+03 8.2556483e+01 -2.5470815e+00 
3.7324219e+03 8.3482679e+01 -3.4590250e+00 
3.8642578e+03 8.3911357e+01 -1.0272643e+01 
4.0004883e+03 8.5145941e+01 -1.7964441e+01 
4.1411133e+03 8.4466938e+01 -3.3178056e+01 
4.2875977e+03 8.4551288e+01 -3.3850582e+01 
4.4384766e+03 8.4341055e+01 -4.5298491e+01 
4.5952148e+03 8.4696615e+01 -4.9716346e+01 
4.7563477e+03 8.4290461e+01 -5.9245737e+01 
4.9248047e+03 8.4340649e+01 -6.9735219e+01 
5.0976563e+03 8.3828054e+01 -6.9563708e+01 
5.2778320e+03 8.3710745e+01 -8.2336192e+01 
5.4638672e+03 8.4291671e+01 -8.6347564e+01 
5.6572266e+03 8.3440744e+01 -9.4858048e+01 
5.8564453e+03 8.3547836e+01 -1.0264541e+02 
6.0629883e+03 8.3825333e+01 -1.1223872e+02 
6.2768555e+03 8.3442909e+01 -1.1933923e+02 
6.4980469e+03 8.2747683e+01 -1.2982537e+02 
6.7265625e+03 8.2686908e+01 -1.3686114e+02 
6.9638672e+03 8.2296860e+01 -1.4421888e+02 
7.2099609e+03 8.2330458e+01 -1.5270344e+02 
7.4648438e+03 8.1715921e+01 -1.6062712e+02 
7.7270508e+03 8.1061123e+01 -1.6951526e+02 
7.9995117e+03 8.1226334e+01 -1.7837525e+02 
8.2822266e+03 8.1171843e+01 1.7458105e+02 
8.5737305e+03 8.0712732e+01 1.6705906e+02 
8.8769531e+03 8.0641061e+01 1.5888357e+02 
9.1889648e+03 8.0952500e+01 1.4888972e+02 
9.5141602e+03 8.1162878e+01 1.3688338e+02 
9.8496094e+03 8.0725254e+01 1.2273134e+02 
1.0196777e+04 7.9311556e+01 1.1273989e+02 
1.0555664e+04 7.8039399e+01 1.1087468e+02 
1.0927734e+04 7.8348907e+01 1.0972054e+02 
1.1312988e+04 7.8848086e+01 1.0150778e+02 
1.1712891e+04 7.8989972e+01 9.3739867e+01 
1.2125977e+04 7.9666904e+01 8.3613926e+01 
1.2553711e+04 8.0033310e+01 6.9301043e+01 
1.2996094e+04 7.9987702e+01 5.3151062e+01 
1.3454590e+04 7.9723256e+01 3.8526340e+01 
1.3929199e+04 7.9479181e+01 2.1608079e+01 
1.4419922e+04 7.9106624e+01 3.5052860e+00 
1.4928223e+04 7.8685654e+01 -1.3982633e+01 
1.5455566e+04 7.8413233e+01 -3.3919969e+01 
1.6000488e+04 7.7815819e+01 -5.6311650e+01 
1.6564453e+04 7.7200026e+01 -7.6911850e+01 
1.7148926e+04 7.6464723e+01 -9.8046789e+01 
1.7752441e+04 7.5918365e+01 -1.1842217e+02 
1.8379395e+04 7.5346665e+01 -1.4092707e+02 
1.9026855e+04 7.4549088e+01 -1.6663738e+02 
1.9697754e+04 7.3584289e+01 1.6698495e+02 
1.9999512e+04 7.3137117e+01 1.5703887e+02 
