Freq[Hz]     dBSPL  Phase[Deg]
2.0507813e+01 6.4434954e+01 7.6805254e+01 
2.1972656e+01 6.8718779e+01 7.3789354e+01 
2.3437500e+01 7.0758305e+01 6.0744712e+01 
2.4902344e+01 7.2332120e+01 5.5393027e+01 
2.6367188e+01 7.4153956e+01 4.6276248e+01 
2.7832031e+01 7.5670663e+01 3.6755079e+01 
2.9296875e+01 7.6725044e+01 2.7088515e+01 
3.0761719e+01 7.7801099e+01 1.8127464e+01 
3.2226563e+01 7.8760053e+01 9.5434652e+00 
3.3691406e+01 7.9615907e+01 1.1465091e+00 
3.5156250e+01 8.0294281e+01 -6.9152468e+00 
3.6621094e+01 8.0882877e+01 -1.4346444e+01 
3.8085938e+01 8.1396226e+01 -2.1374975e+01 
3.9550781e+01 8.1856736e+01 -2.7880742e+01 
4.1015625e+01 8.2260363e+01 -3.3934558e+01 
4.2480469e+01 8.2635937e+01 -3.9643221e+01 
4.3945313e+01 8.2958174e+01 -4.4945028e+01 
4.5410156e+01 8.3262142e+01 -5.0078342e+01 
4.6875000e+01 8.3546399e+01 -5.4884386e+01 
4.8339844e+01 8.3808559e+01 -5.9398977e+01 
5.1269531e+01 8.4267378e+01 -6.7969519e+01 
5.2734375e+01 8.4488743e+01 -7.2004398e+01 
5.4199219e+01 8.4702780e+01 -7.5889510e+01 
5.5664063e+01 8.4902823e+01 -7.9621952e+01 
5.8593750e+01 8.5258326e+01 -8.6813237e+01 
6.0058594e+01 8.5404226e+01 -9.0224223e+01 
6.2988281e+01 8.5689632e+01 -9.6438824e+01 
6.4453125e+01 8.5849083e+01 -9.9461368e+01 
6.7382813e+01 8.6168352e+01 -1.0562346e+02 
6.8847656e+01 8.6295176e+01 -1.0867391e+02 
7.1777344e+01 8.6498147e+01 -1.1457730e+02 
7.4707031e+01 8.6667258e+01 -1.2021581e+02 
7.7636719e+01 8.6832315e+01 -1.2561934e+02 
7.9101563e+01 8.6888971e+01 -1.2826945e+02 
8.2031250e+01 8.6954252e+01 -1.3347348e+02 
8.4960938e+01 8.6982967e+01 -1.3840475e+02 
8.7890625e+01 8.7009623e+01 -1.4293666e+02 
9.0820313e+01 8.6999751e+01 -1.4716350e+02 
9.5214844e+01 8.7023351e+01 -1.5297538e+02 
9.8144531e+01 8.7099205e+01 -1.5686150e+02 
1.0107422e+02 8.7111541e+01 -1.6083141e+02 
1.0546875e+02 8.7057135e+01 -1.6625047e+02 
1.0839844e+02 8.7053481e+01 -1.6960387e+02 
1.1279297e+02 8.7046409e+01 -1.7531306e+02 
1.1718750e+02 8.6848198e+01 1.7940856e+02 
1.2011719e+02 8.6697144e+01 1.7663543e+02 
1.2451172e+02 8.6521774e+01 1.7294734e+02 
1.2890625e+02 8.6376337e+01 1.6934884e+02 
1.3330078e+02 8.6282042e+01 1.6622883e+02 
1.3916016e+02 8.6187760e+01 1.6053557e+02 
1.4355469e+02 8.5888805e+01 1.5698053e+02 
1.4794922e+02 8.5596787e+01 1.5466135e+02 
1.5380859e+02 8.5408603e+01 1.5256335e+02 
1.5966797e+02 8.5405091e+01 1.5012997e+02 
1.6552734e+02 8.5494581e+01 1.4705665e+02 
1.7138672e+02 8.5466916e+01 1.4218741e+02 
1.7724609e+02 8.5118156e+01 1.3951186e+02 
1.8310547e+02 8.5167595e+01 1.3888175e+02 
1.8896484e+02 8.5637634e+01 1.3513130e+02 
1.9628906e+02 8.5556790e+01 1.2707612e+02 
2.0361328e+02 8.5104498e+01 1.2201659e+02 
2.1093750e+02 8.4571173e+01 1.1884109e+02 
2.1826172e+02 8.4288701e+01 1.1712915e+02 
2.2558594e+02 8.4444149e+01 1.1676420e+02 
2.3291016e+02 8.4614304e+01 1.1022022e+02 
2.4169922e+02 8.3929648e+01 1.0621360e+02 
2.5048828e+02 8.3815253e+01 1.0708120e+02 
2.5927734e+02 8.4143411e+01 1.0175927e+02 
2.6806641e+02 8.3564706e+01 9.8365709e+01 
2.7685547e+02 8.3707562e+01 1.0018012e+02 
2.8710938e+02 8.4436553e+01 9.5441879e+01 
2.9736328e+02 8.4494584e+01 9.0301757e+01 
3.0761719e+02 8.4984090e+01 8.5218916e+01 
3.1933594e+02 8.4895199e+01 7.7613646e+01 
3.2958984e+02 8.5213267e+01 7.3842718e+01 
3.4130859e+02 8.5479298e+01 6.2773986e+01 
3.5302734e+02 8.4942027e+01 5.4935923e+01 
3.6621094e+02 8.4277122e+01 4.9133136e+01 
3.7939453e+02 8.4257692e+01 4.6951333e+01 
3.9257813e+02 8.5063674e+01 3.7360404e+01 
4.0576172e+02 8.4599820e+01 2.4635700e+01 
4.2041016e+02 8.3518170e+01 1.7537751e+01 
4.3505859e+02 8.3065422e+01 3.4375942e+00 
4.5117188e+02 7.9833218e+01 -3.5360058e-01 
4.6582031e+02 8.0000781e+01 1.3658051e+01 
4.8339844e+02 8.1402921e+01 1.1907335e+01 
4.9951172e+02 8.2473876e+01 1.6465493e+00 
5.1708984e+02 8.1356630e+01 -1.6664985e+01 
5.3613281e+02 7.7792206e+01 -1.1197196e+01 
5.5517578e+02 7.8942472e+01 -9.5208604e+00 
5.7421875e+02 7.9588083e+01 -1.2390407e+01 
5.9472656e+02 8.1335988e+01 -1.9031891e+01 
6.1523438e+02 8.1370490e+01 -3.4270746e+01 
6.3720703e+02 8.1712515e+01 -4.7740680e+01 
6.5917969e+02 8.0749012e+01 -6.8003038e+01 
6.8261719e+02 7.8219280e+01 -6.0693103e+01 
7.0751953e+02 7.9043545e+01 -6.6546530e+01 
7.3242188e+02 8.0226542e+01 -7.3565156e+01 
7.5732422e+02 8.0984375e+01 -9.1171357e+01 
7.8515625e+02 8.1790323e+01 -1.1012752e+02 
8.1152344e+02 8.0218786e+01 -1.3218916e+02 
8.4082031e+02 7.8118098e+01 -1.5312679e+02 
8.7011719e+02 7.3513979e+01 -1.5184442e+02 
9.0087891e+02 7.5925731e+01 -1.4342212e+02 
9.3310547e+02 7.6620532e+01 -1.6366246e+02 
9.6533203e+02 7.4253363e+01 -1.7916956e+02 
1.0004883e+03 7.0664306e+01 -1.6290620e+02 
1.0356445e+03 7.3487075e+01 -1.4930873e+02 
1.0722656e+03 7.7599842e+01 -1.5922734e+02 
1.1088867e+03 7.8284912e+01 1.7602797e+02 
1.1484375e+03 7.7896260e+01 1.5198394e+02 
1.1894531e+03 7.6180865e+01 1.3574509e+02 
1.2304688e+03 7.3638420e+01 1.4079579e+02 
1.2744141e+03 7.6382859e+01 1.2498546e+02 
1.3198242e+03 7.6288981e+01 1.0434376e+02 
1.3666992e+03 7.5978370e+01 9.1397368e+01 
1.4135742e+03 7.6923775e+01 5.6527386e+01 
1.4633789e+03 6.9307433e+01 2.2143854e+01 
1.5161133e+03 6.3738462e+01 6.0814231e+01 
1.5688477e+03 6.4742868e+01 7.9946663e+01 
1.6245117e+03 6.2029477e+01 6.1011341e+01 
1.6816406e+03 7.0118322e+01 8.1224190e+01 
1.7416992e+03 7.1477149e+01 6.1974546e+01 
1.8032227e+03 7.1555117e+01 2.0723841e+01 
1.8662109e+03 7.0594008e+01 -5.1956933e+01 
1.9321289e+03 7.5557447e+01 -1.4060439e+02 
1.9995117e+03 7.7786570e+01 1.7247323e+02 
2.0698242e+03 7.6262049e+01 1.3049707e+02 
2.1430664e+03 6.3200983e+01 -1.5074136e+02 
2.2192383e+03 7.5223876e+01 1.6209767e+02 
2.2968750e+03 7.8427541e+01 1.3164250e+02 
2.3789063e+03 7.9004778e+01 1.0557575e+02 
2.4624023e+03 7.6618842e+01 8.2680118e+01 
2.5488281e+03 7.3464364e+01 6.4254787e+01 
2.6396484e+03 8.0219409e+01 3.6146112e+01 
2.7319336e+03 7.4356726e+01 5.0057851e+01 
2.8286133e+03 7.1049515e+01 -1.9880386e+01 
2.9282227e+03 7.6292339e+01 3.5496815e+01 
3.0307617e+03 7.7246018e+01 3.6473071e+01 
3.1376953e+03 7.6072321e+01 2.5177764e+01 
3.2490234e+03 7.5641283e+01 2.7248938e+01 
3.3632813e+03 7.6040730e+01 1.5387305e+01 
3.4819336e+03 7.4738841e+01 6.1635247e+00 
3.6049805e+03 7.3662177e+01 -3.3014594e-01 
3.7324219e+03 7.1904261e+01 -6.1233819e+00 
3.8642578e+03 6.8756343e+01 -4.2607479e+00 
4.0004883e+03 6.9377314e+01 1.8797872e+01 
4.1411133e+03 7.1202581e+01 1.8007975e+01 
4.2875977e+03 7.2384388e+01 1.5541083e+01 
4.4384766e+03 7.3628873e+01 -3.9294930e-01 
4.5952148e+03 7.1913979e+01 -2.3923145e+01 
4.7563477e+03 6.8275551e+01 -2.7313690e+01 
4.9248047e+03 6.2110830e+01 -2.0908696e+01 
5.0976563e+03 6.6318904e+01 2.0831425e+01 
5.2778320e+03 6.8209023e+01 1.8689200e+01 
5.4638672e+03 6.8468516e+01 1.0043872e+01 
5.6572266e+03 6.9073199e+01 9.4383189e+00 
5.8564453e+03 6.9792015e+01 7.8376372e+00 
6.0629883e+03 6.9659981e+01 -3.2281387e+00 
6.2768555e+03 6.8868027e+01 -9.2239456e+00 
6.4980469e+03 6.9306200e+01 -5.4641548e+00 
6.7265625e+03 7.0503057e+01 -1.7661371e+01 
6.9638672e+03 6.9320203e+01 -4.2051502e+01 
7.2099609e+03 6.4844261e+01 -5.4724182e+01 
7.4648438e+03 6.2672611e+01 -3.5657450e+01 
7.7270508e+03 6.3599453e+01 -2.7275563e+01 
7.9995117e+03 6.2847849e+01 -2.7399110e+01 
8.2822266e+03 6.2605309e+01 -3.8665025e+01 
8.5737305e+03 6.0719876e+01 -5.8910898e+01 
8.8769531e+03 5.4827052e+01 -1.0746233e+02 
9.1889648e+03 5.2626731e+01 1.0608441e+02 
9.5141602e+03 5.9904890e+01 5.8648590e+01 
9.8496094e+03 6.2771201e+01 4.1043049e+01 
1.0196777e+04 6.3185816e+01 3.6166829e+01 
1.0555664e+04 6.5920036e+01 3.9308343e+01 
1.0927734e+04 6.8455820e+01 3.0107229e+01 
1.1312988e+04 7.0766098e+01 7.8533222e+00 
1.1712891e+04 7.0328174e+01 -1.8311022e+01 
1.2125977e+04 6.8974427e+01 -3.5028741e+01 
1.2553711e+04 6.7551728e+01 -5.0786599e+01 
1.2996094e+04 6.6259224e+01 -6.6485901e+01 
1.3454590e+04 6.4537286e+01 -8.9794576e+01 
1.3929199e+04 6.2178930e+01 -1.1777224e+02 
1.4419922e+04 6.0056908e+01 -1.4948666e+02 
1.4928223e+04 6.1198755e+01 1.6610567e+02 
1.5455566e+04 6.3000338e+01 1.0939432e+02 
1.6000488e+04 6.2548272e+01 6.3181663e+01 
1.6564453e+04 6.1557013e+01 3.6724864e+01 
1.7148926e+04 6.1728737e+01 2.3453232e+01 
1.7752441e+04 6.1608641e+01 -2.8976653e+00 
1.8379395e+04 5.9244065e+01 -2.3554294e+01 
1.9026855e+04 5.7495179e+01 -4.3517401e+01 
1.9697754e+04 5.4957589e+01 -7.5033855e+01 
1.9999512e+04 5.5280283e+01 -9.4065141e+01 
