Freq[Hz]     dBSPL  Phase[Deg]
2.0600000e+01 6.8094991e+01 8.3850597e+01 
2.1200000e+01 6.8763396e+01 8.0348919e+01 
2.1800000e+01 6.9413146e+01 7.6943707e+01 
2.2400000e+01 7.0121610e+01 7.3146108e+01 
2.3000000e+01 7.0841792e+01 6.9254868e+01 
2.3600000e+01 7.1517678e+01 6.5370179e+01 
2.4300000e+01 7.2205121e+01 6.0673227e+01 
2.5000000e+01 7.2892730e+01 5.6126148e+01 
2.5800000e+01 7.3791995e+01 5.1205818e+01 
2.6500000e+01 7.4491894e+01 4.6685757e+01 
2.7200000e+01 7.4902192e+01 4.0862384e+01 
2.8000000e+01 7.5424984e+01 3.4760221e+01 
2.9000000e+01 7.6365717e+01 2.9099228e+01 
3.0000000e+01 7.7284111e+01 2.3207823e+01 
3.0700000e+01 7.7911742e+01 1.9075406e+01 
3.1500000e+01 7.8560600e+01 1.4475171e+01 
3.2500000e+01 7.9327777e+01 8.7228092e+00 
3.3500000e+01 8.0030237e+01 2.7170413e+00 
3.4500000e+01 8.0662791e+01 -3.1550263e+00 
3.5500000e+01 8.1241603e+01 -8.8848398e+00 
3.6500000e+01 8.1758816e+01 -1.4483692e+01 
3.7500000e+01 8.2214914e+01 -1.9993831e+01 
3.8700000e+01 8.2715387e+01 -2.6417066e+01 
4.0000000e+01 8.3197629e+01 -3.3139908e+01 
4.1200000e+01 8.3586577e+01 -3.9135578e+01 
4.2500000e+01 8.3936968e+01 -4.5365211e+01 
4.3700000e+01 8.4222753e+01 -4.9881392e+01 
4.5000000e+01 8.4514268e+01 -5.5373214e+01 
4.6200000e+01 8.4727191e+01 -6.0516595e+01 
4.7500000e+01 8.4916221e+01 -6.5859669e+01 
4.8700000e+01 8.5066476e+01 -7.0533601e+01 
5.0000000e+01 8.5199372e+01 -7.5419879e+01 
5.1500000e+01 8.5342839e+01 -8.0872680e+01 
5.3000000e+01 8.5446750e+01 -8.5960924e+01 
5.4500000e+01 8.5521902e+01 -9.0733007e+01 
5.6000000e+01 8.5574361e+01 -9.5232896e+01 
5.8000000e+01 8.5618831e+01 -1.0088699e+02 
6.0000000e+01 8.5647401e+01 -1.0622895e+02 
6.1500000e+01 8.5662351e+01 -1.1014803e+02 
6.3000000e+01 8.5676794e+01 -1.1397541e+02 
6.5000000e+01 8.5665006e+01 -1.1839955e+02 
6.7000000e+01 8.5614173e+01 -1.2239095e+02 
6.9000000e+01 8.5619775e+01 -1.2654476e+02 
7.1000000e+01 8.5639274e+01 -1.3081858e+02 
7.3000000e+01 8.5627090e+01 -1.3506207e+02 
7.5000000e+01 8.5589660e+01 -1.3919867e+02 
7.7500000e+01 8.5500959e+01 -1.4387082e+02 
8.0000000e+01 8.5403565e+01 -1.4798586e+02 
8.2500000e+01 8.5364192e+01 -1.5178534e+02 
8.5000000e+01 8.5394029e+01 -1.5543462e+02 
8.7500000e+01 8.5448032e+01 -1.5881813e+02 
9.0000000e+01 8.5478463e+01 -1.6225969e+02 
9.2500000e+01 8.5508291e+01 -1.6570771e+02 
9.5000000e+01 8.5539375e+01 -1.6910185e+02 
9.7500000e+01 8.5570605e+01 -1.7227496e+02 
1.0000000e+02 8.5601458e+01 -1.7543337e+02 
1.0300000e+02 8.5602578e+01 -1.7917942e+02 
1.0600000e+02 8.5578914e+01 1.7728120e+02 
1.0900000e+02 8.5557180e+01 1.7428746e+02 
1.1200000e+02 8.5639930e+01 1.7102755e+02 
1.1500000e+02 8.5709820e+01 1.6734317e+02 
1.1800000e+02 8.5476792e+01 1.6406913e+02 
1.2200000e+02 8.4735557e+01 1.6077324e+02 
1.2500000e+02 8.4703418e+01 1.5771218e+02 
1.2800000e+02 8.4670441e+01 1.5485186e+02 
1.3200000e+02 8.4600669e+01 1.5046840e+02 
1.3600000e+02 8.4504406e+01 1.4702303e+02 
1.4000000e+02 8.4418146e+01 1.4413353e+02 
1.4500000e+02 8.4389362e+01 1.4061654e+02 
1.5000000e+02 8.4397497e+01 1.3726670e+02 
1.5500000e+02 8.4464730e+01 1.3367798e+02 
1.6000000e+02 8.4505895e+01 1.2947348e+02 
1.6500000e+02 8.4339790e+01 1.2528283e+02 
1.7000000e+02 8.4262215e+01 1.2307219e+02 
1.7500000e+02 8.4354810e+01 1.1986608e+02 
1.8000000e+02 8.4390328e+01 1.1587186e+02 
1.8500000e+02 8.4233227e+01 1.1203833e+02 
1.9000000e+02 8.4040235e+01 1.0916987e+02 
1.9500000e+02 8.4310151e+01 1.0737624e+02 
2.0000000e+02 8.4304759e+01 1.0248817e+02 
2.0600000e+02 8.4042962e+01 9.7556449e+01 
2.1200000e+02 8.3677478e+01 9.5682641e+01 
2.1800000e+02 8.3805803e+01 9.3094752e+01 
2.2400000e+02 8.3636013e+01 8.7632197e+01 
2.3000000e+02 8.3246936e+01 8.7353243e+01 
2.3600000e+02 8.3266071e+01 8.6432906e+01 
2.4300000e+02 8.3703467e+01 8.2437734e+01 
2.5000000e+02 8.3712183e+01 7.7436455e+01 
2.5800000e+02 8.3391210e+01 7.1539787e+01 
2.6500000e+02 8.3414882e+01 6.9747253e+01 
2.7200000e+02 8.3522154e+01 6.6099498e+01 
2.8000000e+02 8.3395999e+01 6.1131280e+01 
2.9000000e+02 8.2547765e+01 5.7514073e+01 
3.0000000e+02 8.1757675e+01 5.5170517e+01 
3.0700000e+02 8.2236699e+01 5.6849921e+01 
3.1500000e+02 8.3039458e+01 5.2285809e+01 
3.2500000e+02 8.3069642e+01 4.5146069e+01 
3.3500000e+02 8.2431076e+01 3.8901545e+01 
3.4500000e+02 8.1949240e+01 3.3777851e+01 
3.5500000e+02 8.1672807e+01 2.8944481e+01 
3.6500000e+02 8.1611137e+01 2.6259204e+01 
3.7500000e+02 8.0914891e+01 2.4983714e+01 
3.8700000e+02 8.0821203e+01 2.5529339e+01 
4.0000000e+02 8.0897313e+01 2.2085104e+01 
4.1200000e+02 8.1070515e+01 1.6499382e+01 
4.2500000e+02 8.1118704e+01 1.2882237e+01 
4.3700000e+02 8.0653149e+01 1.0988435e+01 
4.5000000e+02 8.1597457e+01 4.7917421e+00 
4.6200000e+02 8.0145555e+01 -3.7046116e-01 
4.7500000e+02 8.0064821e+01 1.1716215e+00 
4.8700000e+02 8.0320776e+01 2.2549185e+00 
5.0000000e+02 7.9825069e+01 -3.9554609e+00 
5.1500000e+02 8.0381783e+01 -1.2318216e+01 
5.3000000e+02 7.8722390e+01 -1.5016451e+01 
5.4500000e+02 7.8659984e+01 -1.5329290e+01 
5.6000000e+02 7.9578613e+01 -1.9062288e+01 
5.8000000e+02 7.9828635e+01 -3.6974321e+01 
6.0000000e+02 7.9459191e+01 -5.4543627e+01 
6.1500000e+02 7.8214066e+01 -6.3420146e+01 
6.3000000e+02 7.6174500e+01 -6.7047715e+01 
6.5000000e+02 7.4878904e+01 -7.2090690e+01 
6.7000000e+02 7.2721950e+01 -8.0226845e+01 
6.9000000e+02 7.0168959e+01 -8.2740603e+01 
7.1000000e+02 6.9615014e+01 -7.2635735e+01 
7.3000000e+02 7.1609077e+01 -6.8054620e+01 
7.5000000e+02 6.9494920e+01 -8.0907283e+01 
7.7500000e+02 6.6777758e+01 -8.5096614e+01 
8.0000000e+02 6.6783628e+01 -7.7798518e+01 
8.2500000e+02 6.7898646e+01 -9.6260787e+01 
8.5000000e+02 6.6309079e+01 -1.3744478e+02 
8.7500000e+02 6.1974962e+01 -1.7207168e+02 
9.0000000e+02 6.1834281e+01 1.6660781e+02 
9.2500000e+02 6.2257272e+01 1.2120085e+02 
9.5000000e+02 6.3204582e+01 9.9071956e+01 
9.7500000e+02 6.4717783e+01 8.9694138e+01 
1.0000000e+03 6.6735070e+01 8.2591133e+01 
1.0300000e+03 6.8365271e+01 7.1953538e+01 
1.0600000e+03 6.8965871e+01 6.2138614e+01 
1.0900000e+03 6.9918820e+01 5.6153508e+01 
1.1200000e+03 7.1109309e+01 4.9897522e+01 
1.1500000e+03 7.1975477e+01 3.9129360e+01 
1.1800000e+03 7.1771708e+01 2.8319565e+01 
1.2200000e+03 7.0985382e+01 2.2856897e+01 
1.2500000e+03 7.0407665e+01 2.3980913e+01 
1.2800000e+03 7.0138873e+01 2.4136145e+01 
1.3200000e+03 7.1124287e+01 9.4742068e+00 
1.3600000e+03 6.9839841e+01 -3.8027747e-01 
1.4000000e+03 6.8689385e+01 -1.2741480e+00 
1.4500000e+03 6.7301390e+01 5.1875125e+00 
1.5000000e+03 6.8675130e+01 1.9275600e+01 
1.5500000e+03 7.0349121e+01 1.5382356e+01 
1.6000000e+03 7.0670181e+01 1.8981971e+01 
1.6500000e+03 7.1914174e+01 1.8290583e+01 
1.7000000e+03 7.3758108e+01 4.6679483e+00 
1.7500000e+03 7.3872146e+01 -6.4769978e+00 
1.8000000e+03 7.2521011e+01 -9.9223169e+00 
1.8500000e+03 7.3461271e+01 -1.2538871e+01 
1.9000000e+03 7.3188461e+01 -2.2766376e+01 
1.9500000e+03 7.3009471e+01 -3.0739404e+01 
2.0000000e+03 7.4101061e+01 -2.8636043e+01 
2.0600000e+03 7.3516304e+01 -4.4874782e+01 
2.1200000e+03 7.2728914e+01 -5.0712699e+01 
2.1800000e+03 7.2799820e+01 -5.9040930e+01 
2.2400000e+03 7.2468882e+01 -6.6959536e+01 
2.3000000e+03 7.0514878e+01 -6.9617150e+01 
2.3600000e+03 7.0835554e+01 -8.1971873e+01 
2.4300000e+03 7.1100013e+01 -8.2862742e+01 
2.5000000e+03 6.8146878e+01 -8.9170693e+01 
2.5800000e+03 6.6503192e+01 -9.2201923e+01 
2.6500000e+03 7.0708680e+01 -8.1707852e+01 
2.7200000e+03 7.0449300e+01 -1.0387885e+02 
2.8000000e+03 6.9840713e+01 -1.2146925e+02 
2.9000000e+03 6.8982062e+01 -1.2949556e+02 
3.0000000e+03 6.8597149e+01 -1.4228465e+02 
3.0700000e+03 6.8068768e+01 -1.5313280e+02 
3.1500000e+03 6.7240440e+01 -1.6466914e+02 
3.2500000e+03 6.6981612e+01 -1.7756647e+02 
3.3500000e+03 6.7861705e+01 1.7230851e+02 
3.4500000e+03 6.7827987e+01 1.5692022e+02 
3.5500000e+03 6.8049607e+01 1.4153002e+02 
3.6500000e+03 6.7855287e+01 1.2528979e+02 
3.7500000e+03 6.7015107e+01 1.0940661e+02 
3.8700000e+03 6.6348625e+01 1.0006348e+02 
4.0000000e+03 6.5330508e+01 8.6431707e+01 
4.1200000e+03 6.5715418e+01 7.7976750e+01 
4.2500000e+03 6.5593595e+01 6.1831079e+01 
4.3700000e+03 6.4890356e+01 4.0600923e+01 
4.5000000e+03 6.2045408e+01 2.7664604e+01 
4.6200000e+03 5.8998325e+01 3.0392974e+01 
4.7500000e+03 6.1506590e+01 4.1890238e+01 
4.8700000e+03 6.2944309e+01 2.1625914e+01 
5.0000000e+03 6.2750452e+01 4.2884984e+00 
5.1500000e+03 6.1806234e+01 -1.2730710e+01 
5.3000000e+03 6.1823627e+01 -3.3328623e+01 
5.4500000e+03 6.0342361e+01 -5.0619521e+01 
5.6000000e+03 5.8689137e+01 -6.9261281e+01 
5.8000000e+03 5.6084547e+01 -8.4004655e+01 
6.0000000e+03 5.6371847e+01 -8.1681508e+01 
6.1500000e+03 5.6652658e+01 -9.2302395e+01 
6.3000000e+03 5.6264357e+01 -1.1111877e+02 
6.5000000e+03 5.5139575e+01 -1.1365016e+02 
6.7000000e+03 5.9063925e+01 -1.4041299e+02 
6.9000000e+03 5.6895559e+01 1.7910510e+02 
7.1000000e+03 5.5826658e+01 1.6363048e+02 
7.3000000e+03 5.4938788e+01 1.4297776e+02 
7.5000000e+03 5.3196853e+01 1.1024168e+02 
7.7500000e+03 5.1363189e+01 1.1643767e+02 
8.0000000e+03 5.1116969e+01 8.3714934e+01 
8.2500000e+03 4.6327714e+01 5.3191915e+01 
8.5000000e+03 4.5271036e+01 5.9890957e+01 
8.7500000e+03 4.5279727e+01 6.4041778e+01 
9.0000000e+03 4.5242952e+01 6.6062623e+01 
9.2500000e+03 4.5202873e+01 6.0722181e+01 
9.5000000e+03 4.5946758e+01 2.9673447e+01 
9.7500000e+03 4.9344813e+01 1.4333977e+00 
1.0000000e+04 4.8946645e+01 -4.5499753e+01 
1.0300000e+04 4.2585762e+01 -9.7806560e+01 
1.0600000e+04 3.4152974e+01 -1.0833524e+02 
1.0900000e+04 4.3763604e+01 -7.9266716e+01 
1.1200000e+04 4.3612242e+01 -1.4387290e+02 
1.1500000e+04 4.3801461e+01 1.4967505e+02 
1.1800000e+04 4.3493116e+01 9.0759593e+01 
1.2200000e+04 3.8770525e+01 7.2255626e+00 
1.2500000e+04 3.4430088e+01 -1.0272385e+02 
1.2800000e+04 3.2384818e+01 -5.2532248e+01 
1.3200000e+04 3.2175079e+01 4.9312609e+01 
1.3600000e+04 3.3992901e+01 6.9283567e+01 
1.4000000e+04 3.3273993e+01 -2.5723501e+00 
1.4500000e+04 2.0881223e+01 4.4875113e+01 
1.5000000e+04 3.6161338e+01 -1.3266861e+02 
1.5500000e+04 3.9324636e+01 9.1348561e+01 
1.6000000e+04 2.8578415e+01 9.5810369e+00 
1.6500000e+04 4.0209308e+01 -1.0009419e+01 
1.7000000e+04 3.6579789e+01 -4.4973620e+01 
1.7500000e+04 3.8893436e+01 -6.8499473e+01 
1.8000000e+04 4.2611029e+01 -9.6418108e+01 
1.8500000e+04 4.4101826e+01 -1.3620915e+02 
1.9000000e+04 4.4838763e+01 1.7838177e+02 
1.9500000e+04 4.0924080e+01 1.6620565e+02 
