Freq[Hz]     dBSPL  Phase[Deg]
2.0600000e+01 6.8105278e+01 7.2259987e+01 
2.1200000e+01 6.8862438e+01 6.9486803e+01 
2.1800000e+01 6.9598465e+01 6.6790568e+01 
2.2400000e+01 7.0347542e+01 6.3684996e+01 
2.3000000e+01 7.1089988e+01 6.0468865e+01 
2.3600000e+01 7.1789617e+01 5.7342385e+01 
2.4300000e+01 7.2510360e+01 5.3815662e+01 
2.5000000e+01 7.3233770e+01 5.0356658e+01 
2.5800000e+01 7.4196668e+01 4.6298136e+01 
2.6500000e+01 7.4946069e+01 4.2450616e+01 
2.7200000e+01 7.5385285e+01 3.7026526e+01 
2.8000000e+01 7.5929848e+01 3.1429006e+01 
2.9000000e+01 7.6848961e+01 2.6656140e+01 
3.0000000e+01 7.7739825e+01 2.1661762e+01 
3.0700000e+01 7.8346785e+01 1.8151520e+01 
3.1500000e+01 7.8942431e+01 1.4590199e+01 
3.2500000e+01 7.9673047e+01 1.0098697e+01 
3.3500000e+01 8.0421680e+01 5.2174505e+00 
3.4500000e+01 8.1113683e+01 1.7243872e-01 
3.5500000e+01 8.1739175e+01 -4.8994809e+00 
3.6500000e+01 8.2274499e+01 -1.0017186e+01 
3.7500000e+01 8.2735505e+01 -1.5001253e+01 
3.8700000e+01 8.3238606e+01 -2.0788289e+01 
4.0000000e+01 8.3725146e+01 -2.6829837e+01 
4.1200000e+01 8.4120623e+01 -3.2222189e+01 
4.2500000e+01 8.4466802e+01 -3.7881731e+01 
4.3700000e+01 8.4703614e+01 -4.3298594e+01 
4.5000000e+01 8.5000224e+01 -4.8376165e+01 
4.6200000e+01 8.5219416e+01 -5.2960513e+01 
4.7500000e+01 8.5405641e+01 -5.7710164e+01 
4.8700000e+01 8.5553505e+01 -6.1791344e+01 
5.0000000e+01 8.5693275e+01 -6.6051852e+01 
5.1500000e+01 8.5845347e+01 -7.0798027e+01 
5.3000000e+01 8.5962826e+01 -7.5185369e+01 
5.4500000e+01 8.6054682e+01 -7.9294640e+01 
5.6000000e+01 8.6127854e+01 -8.3220945e+01 
5.8000000e+01 8.6187280e+01 -8.8176026e+01 
6.0000000e+01 8.6219214e+01 -9.2840809e+01 
6.1500000e+01 8.6244487e+01 -9.6074252e+01 
6.3000000e+01 8.6269730e+01 -9.9225082e+01 
6.5000000e+01 8.6288702e+01 -1.0323940e+02 
6.7000000e+01 8.6193060e+01 -1.0719610e+02 
6.9000000e+01 8.6152210e+01 -1.1101837e+02 
7.1000000e+01 8.6103444e+01 -1.1457519e+02 
7.3000000e+01 8.6056425e+01 -1.1796805e+02 
7.5000000e+01 8.6006989e+01 -1.2119716e+02 
7.7500000e+01 8.5918834e+01 -1.2488943e+02 
8.0000000e+01 8.5838588e+01 -1.2813161e+02 
8.2500000e+01 8.5815066e+01 -1.3128956e+02 
8.5000000e+01 8.5821754e+01 -1.3446871e+02 
8.7500000e+01 8.5834136e+01 -1.3730071e+02 
9.0000000e+01 8.5784976e+01 -1.4016727e+02 
9.2500000e+01 8.5715158e+01 -1.4276930e+02 
9.5000000e+01 8.5641985e+01 -1.4520333e+02 
9.7500000e+01 8.5620973e+01 -1.4727143e+02 
1.0000000e+02 8.5584077e+01 -1.4949493e+02 
1.0300000e+02 8.5480436e+01 -1.5174551e+02 
1.0600000e+02 8.5380457e+01 -1.5348812e+02 
1.0900000e+02 8.5442682e+01 -1.5470587e+02 
1.1200000e+02 8.5603429e+01 -1.5764518e+02 
1.1500000e+02 8.5585405e+01 -1.6055557e+02 
1.1800000e+02 8.5463416e+01 -1.6233357e+02 
1.2200000e+02 8.5250524e+01 -1.6277364e+02 
1.2500000e+02 8.5176535e+01 -1.6469195e+02 
1.2800000e+02 8.5113794e+01 -1.6648420e+02 
1.3200000e+02 8.5078401e+01 -1.6818453e+02 
1.3600000e+02 8.5025003e+01 -1.7023991e+02 
1.4000000e+02 8.4949013e+01 -1.7236016e+02 
1.4500000e+02 8.4840336e+01 -1.7419018e+02 
1.5000000e+02 8.4784453e+01 -1.7590836e+02 
1.5500000e+02 8.4730021e+01 -1.7752030e+02 
1.6000000e+02 8.4721173e+01 -1.7890112e+02 
1.6500000e+02 8.4803653e+01 -1.7969144e+02 
1.7000000e+02 8.4985180e+01 1.7722613e+02 
1.7500000e+02 8.4786994e+01 1.7462267e+02 
1.8000000e+02 8.4514007e+01 1.7395889e+02 
1.8500000e+02 8.4551857e+01 1.7541339e+02 
1.9000000e+02 8.5002639e+01 1.7655983e+02 
1.9500000e+02 8.5475256e+01 1.7177131e+02 
2.0000000e+02 8.5511806e+01 1.6864556e+02 
2.0600000e+02 8.5316903e+01 1.6563709e+02 
2.1200000e+02 8.5076684e+01 1.6324083e+02 
2.1800000e+02 8.5043324e+01 1.6326461e+02 
2.2400000e+02 8.5216872e+01 1.6396815e+02 
2.3000000e+02 8.5685434e+01 1.5963263e+02 
2.3600000e+02 8.5682125e+01 1.5604717e+02 
2.4300000e+02 8.5190456e+01 1.5457851e+02 
2.5000000e+02 8.5237602e+01 1.5302389e+02 
2.5800000e+02 8.5755225e+01 1.5208262e+02 
2.6500000e+02 8.5755681e+01 1.4572455e+02 
2.7200000e+02 8.5164396e+01 1.4397781e+02 
2.8000000e+02 8.4863803e+01 1.4746067e+02 
2.9000000e+02 8.5868217e+01 1.4881200e+02 
3.0000000e+02 8.6336277e+01 1.4007269e+02 
3.0700000e+02 8.6258656e+01 1.3197567e+02 
3.1500000e+02 8.5347059e+01 1.2934263e+02 
3.2500000e+02 8.4860496e+01 1.3351714e+02 
3.3500000e+02 8.5327941e+01 1.3473773e+02 
3.4500000e+02 8.5880211e+01 1.2828609e+02 
3.5500000e+02 8.5893710e+01 1.2121552e+02 
3.6500000e+02 8.5442502e+01 1.1813354e+02 
3.7500000e+02 8.4860812e+01 1.2223444e+02 
3.8700000e+02 8.5853789e+01 1.2218192e+02 
4.0000000e+02 8.6157475e+01 1.1171080e+02 
4.1200000e+02 8.5367924e+01 1.0678923e+02 
4.2500000e+02 8.5435824e+01 1.0870667e+02 
4.3700000e+02 8.6359398e+01 1.0659003e+02 
4.5000000e+02 8.5241178e+01 9.9960786e+01 
4.6200000e+02 8.5204214e+01 1.0224204e+02 
4.7500000e+02 8.5195409e+01 1.0168234e+02 
4.8700000e+02 8.5178358e+01 1.0033895e+02 
5.0000000e+02 8.5211386e+01 1.0038699e+02 
5.1500000e+02 8.5149044e+01 9.6112257e+01 
5.3000000e+02 8.4927152e+01 9.6462190e+01 
5.4500000e+02 8.5118271e+01 9.5168499e+01 
5.6000000e+02 8.5702836e+01 9.0824369e+01 
5.8000000e+02 8.6287819e+01 8.1034849e+01 
6.0000000e+02 8.6107726e+01 7.2455109e+01 
6.1500000e+02 8.6718462e+01 6.8448288e+01 
6.3000000e+02 8.5767238e+01 6.5251536e+01 
6.5000000e+02 8.5616310e+01 6.3563086e+01 
6.7000000e+02 8.5883346e+01 6.0325327e+01 
6.9000000e+02 8.5804118e+01 5.4950124e+01 
7.1000000e+02 8.5493222e+01 5.0296898e+01 
7.3000000e+02 8.5518650e+01 4.6921741e+01 
7.5000000e+02 8.5447764e+01 4.3581943e+01 
7.7500000e+02 8.5298803e+01 3.8838322e+01 
8.0000000e+02 8.5110228e+01 3.1731176e+01 
8.2500000e+02 8.4797922e+01 2.7469652e+01 
8.5000000e+02 8.4618084e+01 2.6217774e+01 
8.7500000e+02 8.4849242e+01 2.3381522e+01 
9.0000000e+02 8.5218606e+01 1.8164454e+01 
9.2500000e+02 8.5200957e+01 1.6382906e+01 
9.5000000e+02 8.5260687e+01 1.0482596e+01 
9.7500000e+02 8.5405927e+01 3.3834008e+00 
1.0000000e+03 8.5616737e+01 -2.4784430e+00 
1.0300000e+03 8.4976515e+01 -8.2605859e+00 
1.0600000e+03 8.4805808e+01 -1.3691363e+01 
1.0900000e+03 8.4433074e+01 -1.8966512e+01 
1.1200000e+03 8.4182452e+01 -2.3023351e+01 
1.1500000e+03 8.4470871e+01 -2.5264894e+01 
1.1800000e+03 8.4503572e+01 -2.9803685e+01 
1.2200000e+03 8.4591870e+01 -3.9155150e+01 
1.2500000e+03 8.4870417e+01 -4.5193022e+01 
1.2800000e+03 8.5055824e+01 -5.0626677e+01 
1.3200000e+03 8.4183961e+01 -5.9785458e+01 
1.3600000e+03 8.4048231e+01 -6.9596450e+01 
1.4000000e+03 8.3558664e+01 -7.3205300e+01 
1.4500000e+03 8.3417850e+01 -7.9555328e+01 
1.5000000e+03 8.3246451e+01 -8.7469182e+01 
1.5500000e+03 8.2876008e+01 -9.6735079e+01 
1.6000000e+03 8.2847566e+01 -1.0401168e+02 
1.6500000e+03 8.3028670e+01 -1.0924882e+02 
1.7000000e+03 8.3264262e+01 -1.1583675e+02 
1.7500000e+03 8.3515879e+01 -1.2561387e+02 
1.8000000e+03 8.3196156e+01 -1.3590834e+02 
1.8500000e+03 8.2731166e+01 -1.4357296e+02 
1.9000000e+03 8.2518151e+01 -1.4871850e+02 
1.9500000e+03 8.2787471e+01 -1.5373539e+02 
2.0000000e+03 8.3681649e+01 -1.6049505e+02 
2.0600000e+03 8.4183585e+01 -1.7431083e+02 
2.1200000e+03 8.4064377e+01 1.7335868e+02 
2.1800000e+03 8.3797229e+01 1.6518069e+02 
2.2400000e+03 8.3770616e+01 1.5888792e+02 
2.3000000e+03 8.4210411e+01 1.5161526e+02 
2.3600000e+03 8.4484461e+01 1.4249274e+02 
2.4300000e+03 8.4627677e+01 1.3377426e+02 
2.5000000e+03 8.4835177e+01 1.2532244e+02 
2.5800000e+03 8.5024843e+01 1.1556336e+02 
2.6500000e+03 8.5005782e+01 1.0782945e+02 
2.7200000e+03 8.5239694e+01 1.0216547e+02 
2.8000000e+03 8.5342180e+01 9.2201590e+01 
2.9000000e+03 8.5181378e+01 7.9737117e+01 
3.0000000e+03 8.4642322e+01 7.1227939e+01 
3.0700000e+03 8.4726347e+01 6.6477391e+01 
3.1500000e+03 8.5178359e+01 6.0293673e+01 
3.2500000e+03 8.4987061e+01 4.6224747e+01 
3.3500000e+03 8.4531537e+01 4.1383071e+01 
3.4500000e+03 8.4503887e+01 3.3062779e+01 
3.5500000e+03 8.4310405e+01 2.7014516e+01 
3.6500000e+03 8.4138453e+01 2.1302747e+01 
3.7500000e+03 8.4027497e+01 1.5171976e+01 
3.8700000e+03 8.3477439e+01 1.1594417e+01 
4.0000000e+03 8.4652999e+01 5.3258511e+00 
4.1200000e+03 8.3503820e+01 -2.4866416e+00 
4.2500000e+03 8.4440889e+01 -7.2208876e+00 
4.3700000e+03 8.4303827e+01 -1.3424738e+01 
4.5000000e+03 8.4111369e+01 -2.1165346e+01 
4.6200000e+03 8.4402797e+01 -2.7371258e+01 
4.7500000e+03 8.4064415e+01 -3.1041336e+01 
4.8700000e+03 8.3929360e+01 -4.1133812e+01 
5.0000000e+03 8.3873591e+01 -4.5967890e+01 
5.1500000e+03 8.3620380e+01 -4.9245356e+01 
5.3000000e+03 8.3063566e+01 -5.7466537e+01 
5.4500000e+03 8.3413088e+01 -6.2476019e+01 
5.6000000e+03 8.3272293e+01 -6.5182190e+01 
5.8000000e+03 8.2793056e+01 -7.1182241e+01 
6.0000000e+03 8.3152516e+01 -7.9520790e+01 
6.1500000e+03 8.3364969e+01 -8.4118405e+01 
6.3000000e+03 8.3327481e+01 -8.7946480e+01 
6.5000000e+03 8.3144644e+01 -9.7762451e+01 
6.7000000e+03 8.3231228e+01 -1.0481929e+02 
6.9000000e+03 8.2776451e+01 -1.1383818e+02 
7.1000000e+03 8.2650278e+01 -1.2097746e+02 
7.3000000e+03 8.2578103e+01 -1.2543848e+02 
7.5000000e+03 8.2357944e+01 -1.2867793e+02 
7.7500000e+03 8.2200680e+01 -1.3717129e+02 
8.0000000e+03 8.2526334e+01 -1.4530802e+02 
8.2500000e+03 8.2583760e+01 -1.5191568e+02 
8.5000000e+03 8.2444887e+01 -1.5970204e+02 
8.7500000e+03 8.2364533e+01 -1.6798508e+02 
9.0000000e+03 8.2307242e+01 -1.7669396e+02 
9.2500000e+03 8.2152597e+01 1.7483576e+02 
9.5000000e+03 8.1741483e+01 1.6797874e+02 
9.7500000e+03 8.1287961e+01 1.6491783e+02 
1.0000000e+04 8.1298293e+01 1.6257671e+02 
1.0300000e+04 8.1743433e+01 1.5820366e+02 
1.0600000e+04 8.2244135e+01 1.5004934e+02 
1.0900000e+04 8.2303742e+01 1.4110483e+02 
1.1200000e+04 8.2421656e+01 1.3275261e+02 
1.1500000e+04 8.2340868e+01 1.2443391e+02 
1.1800000e+04 8.2196139e+01 1.1637311e+02 
1.2200000e+04 8.2108972e+01 1.0632561e+02 
1.2500000e+04 8.1805318e+01 9.8236715e+01 
1.2800000e+04 8.1636917e+01 9.2194810e+01 
1.3200000e+04 8.1628830e+01 8.3645911e+01 
1.3600000e+04 8.1888987e+01 7.3638594e+01 
1.4000000e+04 8.2277471e+01 6.2266595e+01 
1.4500000e+04 8.2456748e+01 4.4423979e+01 
1.5000000e+04 8.2291144e+01 2.5497965e+01 
1.5500000e+04 8.1621904e+01 9.2848103e+00 
1.6000000e+04 8.1233570e+01 -3.1311381e+00 
1.6500000e+04 8.1358093e+01 -1.6589012e+01 
1.7000000e+04 8.1425971e+01 -3.1270220e+01 
1.7500000e+04 8.1399389e+01 -4.7591234e+01 
1.8000000e+04 8.1099901e+01 -6.3401710e+01 
1.8500000e+04 8.0570510e+01 -7.8012253e+01 
1.9000000e+04 8.0059928e+01 -9.2364532e+01 
1.9500000e+04 7.9742644e+01 -1.0713044e+02 
