Param_Coord_x1 = 2
Param_Coord_x2 = 60
Param_Coord_x3 = 90
Param_Coord_Type = Spherical
Param_Coord_AngularFormat = degree
Param_Coord_Front = '0,0'
Param_Coord_Top = '90,0'
Data_Domain=Frequency
Data_Phase_AngularFormat=degree
Data_Format = LeveldB_Phase
Data_LevelType=SoundPressure

Curve=[
2.0507813e+01 6.1847758e+01 8.3312757e+01
2.1972656e+01 6.4303846e+01 7.1927519e+01
2.3437500e+01 6.6691964e+01 5.9693423e+01
2.4902344e+01 6.8908940e+01 4.6091294e+01
2.6367188e+01 7.0882035e+01 3.1531788e+01
2.7832031e+01 7.2501075e+01 1.7549839e+01
2.9296875e+01 7.3792050e+01 3.8576282e+00
3.0761719e+01 7.4675511e+01 -8.6542664e+00
3.2226563e+01 7.5679607e+01 -2.1537083e+01
3.3691406e+01 7.5895295e+01 -3.1129825e+01
3.5156250e+01 7.6632387e+01 -4.0056838e+01
3.6621094e+01 7.7156239e+01 -4.8547582e+01
3.8085938e+01 7.7590830e+01 -5.6117298e+01
3.9550781e+01 7.8016903e+01 -6.3252509e+01
4.1015625e+01 7.8422941e+01 -7.0021848e+01
4.2480469e+01 7.8843852e+01 -7.6219352e+01
4.3945313e+01 7.9245502e+01 -8.1994561e+01
4.5410156e+01 7.9646002e+01 -8.7449872e+01
4.6875000e+01 8.0043851e+01 -9.2920085e+01
4.8339844e+01 8.0450165e+01 -9.8380214e+01
5.1269531e+01 8.1273425e+01 -1.0885201e+02
5.2734375e+01 8.1615262e+01 -1.1375140e+02
5.4199219e+01 8.1926655e+01 -1.1867059e+02
5.5664063e+01 8.2252290e+01 -1.2366869e+02
5.8593750e+01 8.2845494e+01 -1.3361159e+02
6.0058594e+01 8.3156445e+01 -1.3869238e+02
6.2988281e+01 8.3849955e+01 -1.4827212e+02
6.4453125e+01 8.4130538e+01 -1.5298427e+02
6.7382813e+01 8.4516914e+01 -1.6200940e+02
6.8847656e+01 8.4700839e+01 -1.6686399e+02
7.1777344e+01 8.5122613e+01 -1.7702288e+02
7.4707031e+01 8.5490375e+01 1.7407798e+02
7.7636719e+01 8.5640243e+01 1.6543309e+02
7.9101563e+01 8.5727300e+01 1.6085012e+02
8.2031250e+01 8.5956938e+01 1.5177119e+02
8.4960938e+01 8.6045138e+01 1.4344705e+02
8.7890625e+01 8.6027598e+01 1.3596336e+02
9.0820313e+01 8.6052674e+01 1.2845810e+02
9.5214844e+01 8.6259926e+01 1.1800586e+02
9.8144531e+01 8.6248108e+01 1.1049377e+02
1.0107422e+02 8.6221796e+01 1.0368963e+02
1.0546875e+02 8.6205888e+01 9.4069641e+01
1.0839844e+02 8.6217268e+01 8.8062570e+01
1.1279297e+02 8.6259837e+01 7.8626237e+01
1.1718750e+02 8.6304458e+01 6.9395354e+01
1.2011719e+02 8.6300690e+01 6.2861130e+01
1.2451172e+02 8.6205820e+01 5.3466845e+01
1.2890625e+02 8.6054685e+01 4.4880369e+01
1.3330078e+02 8.5955878e+01 3.6704272e+01
1.3916016e+02 8.5836279e+01 2.5023031e+01
1.4355469e+02 8.5531981e+01 1.6839254e+01
1.4794922e+02 8.5263746e+01 1.0227440e+01
1.5380859e+02 8.5181728e+01 1.6124463e+00
1.5966797e+02 8.5088828e+01 -8.0920139e+00
1.6552734e+02 8.4939076e+01 -1.7134362e+01
1.7138672e+02 8.4770819e+01 -2.6698405e+01
1.7724609e+02 8.4359408e+01 -3.5058609e+01
1.8310547e+02 8.4099302e+01 -4.1118535e+01
1.8896484e+02 8.4234441e+01 -4.6073733e+01
1.9628906e+02 8.5011884e+01 -5.7095678e+01
2.0361328e+02 8.5095365e+01 -7.0563956e+01
2.1093750e+02 8.4630442e+01 -8.1605775e+01
2.1826172e+02 8.4840626e+01 -8.9144345e+01
2.2558594e+02 8.5356555e+01 -1.0073261e+02
2.3291016e+02 8.5417722e+01 -1.1605014e+02
2.4169922e+02 8.4694140e+01 -1.2867550e+02
2.5048828e+02 8.4773590e+01 -1.3979969e+02
2.5927734e+02 8.4699273e+01 -1.5450163e+02
2.6806641e+02 8.3983653e+01 -1.6781975e+02
2.7685547e+02 8.3191560e+01 -1.7351687e+02
2.8710938e+02 8.4506929e+01 -1.7775490e+02
2.9736328e+02 8.6029177e+01 1.6052730e+02
3.0761719e+02 8.5549791e+01 1.3801620e+02
3.1933594e+02 8.3851542e+01 1.2318967e+02
3.2958984e+02 8.4294238e+01 1.1659363e+02
3.4130859e+02 8.5326168e+01 9.9369771e+01
3.5302734e+02 8.5149136e+01 7.7723396e+01
3.6621094e+02 8.3721104e+01 5.9460027e+01
3.7939453e+02 8.4432397e+01 5.3650680e+01
3.9257813e+02 8.6167537e+01 3.1639874e+01
4.0576172e+02 8.5313558e+01 2.2745110e+00
4.2041016e+02 8.4412380e+01 -1.5322571e+01
4.3505859e+02 8.4788846e+01 -3.0235570e+01
4.5117188e+02 8.3861241e+01 -5.6805715e+01
4.6582031e+02 8.3998428e+01 -6.7278720e+01
4.8339844e+02 8.3924666e+01 -9.5210024e+01
4.9951172e+02 8.4456082e+01 -1.1503263e+02
5.1708984e+02 8.4140989e+01 -1.4128314e+02
5.3613281e+02 8.3822883e+01 -1.6443505e+02
5.5517578e+02 8.4174162e+01 1.7301936e+02
5.7421875e+02 8.4441140e+01 1.5024089e+02
5.9472656e+02 8.3118837e+01 1.2376959e+02
6.1523438e+02 8.4703623e+01 9.7122172e+01
6.3720703e+02 8.3523792e+01 7.0428460e+01
6.5917969e+02 8.3971112e+01 4.3765997e+01
6.8261719e+02 8.3921898e+01 1.6628607e+01
7.0751953e+02 8.4424395e+01 -1.7702796e+01
7.3242188e+02 8.3976283e+01 -4.7885959e+01
7.5732422e+02 8.3435980e+01 -8.1007086e+01
7.8515625e+02 8.4010779e+01 -1.1066368e+02
8.1152344e+02 8.3597266e+01 -1.4545669e+02
8.4082031e+02 8.3644419e+01 1.7774270e+02
8.7011719e+02 8.4955432e+01 1.4378709e+02
9.0087891e+02 8.4047914e+01 9.9381651e+01
9.3310547e+02 8.4160759e+01 5.9045290e+01
9.6533203e+02 8.3486120e+01 1.7193754e+01
1.0004883e+03 8.3209166e+01 -2.8624397e+01
1.0356445e+03 8.2403399e+01 -6.7296454e+01
1.0722656e+03 8.2536975e+01 -1.1312577e+02
1.1088867e+03 8.1976626e+01 -1.5788361e+02
1.1484375e+03 8.1880152e+01 1.5569465e+02
1.1894531e+03 8.1089268e+01 1.0612187e+02
1.2304688e+03 8.0596218e+01 5.6495317e+01
1.2744141e+03 8.0463188e+01 4.5242862e+00
1.3198242e+03 8.0584987e+01 -4.5357470e+01
1.3666992e+03 8.0359153e+01 -1.0096001e+02
1.4135742e+03 8.0626376e+01 -1.5759217e+02
1.4633789e+03 8.0509118e+01 1.4204410e+02
1.5161133e+03 7.9832819e+01 7.6202361e+01
1.5688477e+03 7.9026277e+01 1.9122395e+01
1.6245117e+03 7.9092130e+01 -4.7361188e+01
1.6816406e+03 7.9472340e+01 -1.1439124e+02
1.7416992e+03 7.9404385e+01 1.7263860e+02
1.8032227e+03 7.9100892e+01 9.9118084e+01
1.8662109e+03 7.8536867e+01 3.1144243e+01
1.9321289e+03 7.8887393e+01 -4.0815021e+01
1.9995117e+03 7.9949765e+01 -1.2139701e+02
2.0698242e+03 8.0206749e+01 1.5228024e+02
2.1430664e+03 8.0103546e+01 6.6603852e+01
2.2192383e+03 8.0237994e+01 -1.8145544e+01
2.2968750e+03 8.0585711e+01 -1.0752417e+02
2.3789063e+03 8.1014720e+01 1.5755786e+02
2.4624023e+03 8.1483644e+01 6.2224704e+01
2.5488281e+03 8.1701696e+01 -4.2559661e+01
2.6396484e+03 8.1463145e+01 -1.4557345e+02
2.7319336e+03 8.1877315e+01 1.1070259e+02
2.8286133e+03 8.1983512e+01 -1.7671483e-01
2.9282227e+03 8.1872897e+01 -1.1446602e+02
3.0307617e+03 8.2078095e+01 1.3243807e+02
3.1376953e+03 8.2254496e+01 7.6437010e+00
3.2490234e+03 8.1374334e+01 -1.1609238e+02
3.3632813e+03 8.0721219e+01 1.1796243e+02
3.4819336e+03 8.0531806e+01 -9.3850181e+00
3.6049805e+03 8.0176659e+01 -1.4241450e+02
3.7324219e+03 7.9848801e+01 8.1358233e+01
3.8642578e+03 8.0589063e+01 -5.8193754e+01
4.0004883e+03 8.0332049e+01 1.5428344e+02
4.1411133e+03 8.1023492e+01 3.5876182e+00
4.2875977e+03 8.1248150e+01 -1.5453205e+02
4.4384766e+03 8.1953549e+01 3.8936767e+01
4.5952148e+03 8.1674077e+01 -1.3166218e+02
4.7563477e+03 8.1820859e+01 5.0490940e+01
4.9248047e+03 8.1301273e+01 -1.3023888e+02
5.0976563e+03 8.1106469e+01 4.5726859e+01
5.2778320e+03 8.1288417e+01 -1.5072129e+02
5.4638672e+03 8.1331688e+01 1.3976835e+01
5.6572266e+03 8.1494757e+01 1.6289994e+02
5.8564453e+03 8.1656627e+01 -5.2239111e+01
6.0629883e+03 8.1883563e+01 8.2806879e+01
6.2768555e+03 8.1416240e+01 -1.4799535e+02
6.4980469e+03 8.0921661e+01 -2.8541004e+01
6.7265625e+03 8.0914148e+01 8.5968107e+01
6.9638672e+03 8.0288380e+01 -1.6750693e+02
7.2099609e+03 8.0227320e+01 -7.1928403e+01
7.4648438e+03 8.0363252e+01 1.5312564e+01
7.7270508e+03 7.9944373e+01 9.1763861e+01
7.9995117e+03 7.9216769e+01 1.5755278e+02
8.2822266e+03 7.8871415e+01 -1.4492751e+02
8.5737305e+03 7.8231352e+01 -9.4507492e+01
8.8769531e+03 7.7552597e+01 -5.8367656e+01
9.1889648e+03 7.7216000e+01 -2.6557846e+01
9.5141602e+03 7.7105392e+01 -1.3097018e+01
9.8496094e+03 7.7072841e+01 -1.0071380e+01
1.0196777e+04 7.6507752e+01 -1.9150298e+01
1.0555664e+04 7.5698504e+01 -3.8972275e+01
1.0927734e+04 7.5235515e+01 -7.0798417e+01
1.1312988e+04 7.5000002e+01 -1.1564130e+02
1.1712891e+04 7.4912302e+01 -1.7600043e+02
1.2125977e+04 7.5174696e+01 1.1008106e+02
1.2553711e+04 7.5745018e+01 1.6584926e+01
1.2996094e+04 7.6136723e+01 -9.5890693e+01
1.3454590e+04 7.6183521e+01 1.3366761e+02
1.3929199e+04 7.6068808e+01 -1.5444282e+01
1.4419922e+04 7.5478283e+01 1.7806316e+02
1.4928223e+04 7.4908312e+01 -3.9187555e+00
1.5455566e+04 7.4548409e+01 1.5366201e+02
1.6000488e+04 7.4119427e+01 -6.8479838e+01
1.6564453e+04 7.3643873e+01 5.0830385e+01
1.7148926e+04 7.3237182e+01 1.4710217e+02
1.7752441e+04 7.2673028e+01 -1.3527203e+02
1.8379395e+04 7.2129686e+01 -8.4512737e+01
1.9026855e+04 7.1255295e+01 -5.5970438e+01
1.9697754e+04 6.8559397e+01 -5.3476777e+01
1.9999512e+04 6.6832884e+01 -9.7569981e+00
];
