Param_Coord_x1 = 2
Param_Coord_x2 = 250
Param_Coord_x3 = 90
Param_Coord_Type = Spherical
Param_Coord_AngularFormat = degree
Param_Coord_Front = '0,0'
Param_Coord_Top = '90,0'
Data_Domain=Frequency
Data_Phase_AngularFormat=degree
Data_Format = LeveldB_Phase
Data_LevelType=SoundPressure

Curve=[
2.0507813e+01 6.4904650e+01 1.0885205e+02
2.1972656e+01 6.6901831e+01 9.7128124e+01
2.3437500e+01 6.8851649e+01 8.4625287e+01
2.4902344e+01 7.0747901e+01 6.8250873e+01
2.6367188e+01 7.2422393e+01 5.2132210e+01
2.7832031e+01 7.3741719e+01 3.6232655e+01
2.9296875e+01 7.4911627e+01 2.1179795e+01
3.0761719e+01 7.5781132e+01 6.9064982e+00
3.2226563e+01 7.6402865e+01 -7.9529593e+00
3.3691406e+01 7.6729384e+01 -1.7687189e+01
3.5156250e+01 7.7325324e+01 -2.8259346e+01
3.6621094e+01 7.7772016e+01 -3.7649943e+01
3.8085938e+01 7.8146330e+01 -4.6054055e+01
3.9550781e+01 7.8515365e+01 -5.3909127e+01
4.1015625e+01 7.8891446e+01 -6.1275854e+01
4.2480469e+01 7.9274385e+01 -6.8081981e+01
4.3945313e+01 7.9668439e+01 -7.4275777e+01
4.5410156e+01 8.0056183e+01 -8.0416263e+01
4.6875000e+01 8.0426236e+01 -8.6416694e+01
4.8339844e+01 8.0808676e+01 -9.2400475e+01
5.1269531e+01 8.1573547e+01 -1.0373885e+02
5.2734375e+01 8.1892843e+01 -1.0903550e+02
5.4199219e+01 8.2179053e+01 -1.1430837e+02
5.5664063e+01 8.2487333e+01 -1.1957607e+02
5.8593750e+01 8.3060594e+01 -1.3034909e+02
6.0058594e+01 8.3340092e+01 -1.3580965e+02
6.2988281e+01 8.3922226e+01 -1.4591796e+02
6.4453125e+01 8.4189410e+01 -1.5059710e+02
6.7382813e+01 8.4653184e+01 -1.6006517e+02
6.8847656e+01 8.4840874e+01 -1.6543373e+02
7.1777344e+01 8.5219712e+01 -1.7658376e+02
7.4707031e+01 8.5466425e+01 1.7395629e+02
7.7636719e+01 8.5564262e+01 1.6472318e+02
7.9101563e+01 8.5597835e+01 1.6002180e+02
8.2031250e+01 8.5735326e+01 1.5136439e+02
8.4960938e+01 8.5928680e+01 1.4348138e+02
8.7890625e+01 8.6039908e+01 1.3509861e+02
9.0820313e+01 8.6115873e+01 1.2698902e+02
9.5214844e+01 8.6177171e+01 1.1496638e+02
9.8144531e+01 8.6286488e+01 1.0745399e+02
1.0107422e+02 8.6285985e+01 9.9143026e+01
1.0546875e+02 8.6103701e+01 8.8444256e+01
1.0839844e+02 8.6039527e+01 8.2306100e+01
1.1279297e+02 8.6158907e+01 7.3246394e+01
1.1718750e+02 8.6277215e+01 6.2515511e+01
1.2011719e+02 8.6257470e+01 5.4994024e+01
1.2451172e+02 8.6009633e+01 4.5004979e+01
1.2890625e+02 8.5889482e+01 3.6211342e+01
1.3330078e+02 8.5798174e+01 2.7113290e+01
1.3916016e+02 8.5557951e+01 1.4774709e+01
1.4355469e+02 8.5356097e+01 6.7948610e+00
1.4794922e+02 8.5254918e+01 -1.1313923e+00
1.5380859e+02 8.5160708e+01 -1.2636310e+01
1.5966797e+02 8.4733954e+01 -2.4331395e+01
1.6552734e+02 8.4313478e+01 -3.3048401e+01
1.7138672e+02 8.4306808e+01 -4.2452436e+01
1.7724609e+02 8.3944377e+01 -5.3911965e+01
1.8310547e+02 8.3220242e+01 -6.2188371e+01
1.8896484e+02 8.3057325e+01 -6.6684415e+01
1.9628906e+02 8.3673487e+01 -7.8460697e+01
2.0361328e+02 8.3424555e+01 -9.2168073e+01
2.1093750e+02 8.2907782e+01 -1.0441845e+02
2.1826172e+02 8.2443527e+01 -1.1379698e+02
2.2558594e+02 8.2010740e+01 -1.2087899e+02
2.3291016e+02 8.3155566e+01 -1.2963450e+02
2.4169922e+02 8.2672083e+01 -1.4898148e+02
2.5048828e+02 8.2189638e+01 -1.6222991e+02
2.5927734e+02 8.1757584e+01 -1.6991351e+02
2.6806641e+02 8.2345121e+01 1.7527197e+02
2.7685547e+02 8.1364878e+01 1.5882021e+02
2.8710938e+02 8.0629841e+01 1.5505560e+02
2.9736328e+02 8.1807965e+01 1.4394996e+02
3.0761719e+02 8.2308891e+01 1.2507059e+02
3.1933594e+02 8.1720233e+01 1.0054097e+02
3.2958984e+02 8.0301895e+01 9.2253927e+01
3.4130859e+02 8.0918045e+01 8.2074999e+01
3.5302734e+02 8.1583503e+01 6.3754782e+01
3.6621094e+02 8.1129885e+01 4.0196937e+01
3.7939453e+02 7.9653143e+01 2.4830586e+01
3.9257813e+02 8.0527748e+01 2.6571693e+01
4.0576172e+02 8.2059794e+01 -4.5931891e+00
4.2041016e+02 8.0139693e+01 -2.9852509e+01
4.3505859e+02 8.0513503e+01 -3.2628658e+01
4.5117188e+02 8.1306728e+01 -6.4273223e+01
4.6582031e+02 8.0097448e+01 -8.4239680e+01
4.8339844e+02 8.0558100e+01 -1.0139964e+02
4.9951172e+02 7.9324855e+01 -1.1897472e+02
5.1708984e+02 8.1538028e+01 -1.3869556e+02
5.3613281e+02 8.1502030e+01 -1.6874086e+02
5.5517578e+02 8.2067322e+01 1.6426186e+02
5.7421875e+02 8.1616364e+01 1.4057051e+02
5.9472656e+02 8.1087369e+01 1.0663031e+02
6.1523438e+02 8.1775439e+01 9.3435278e+01
6.3720703e+02 8.1916493e+01 5.4463874e+01
6.5917969e+02 8.1196226e+01 2.9425486e+01
6.8261719e+02 8.1264679e+01 8.9268487e-01
7.0751953e+02 8.2007042e+01 -3.0107456e+01
7.3242188e+02 8.2482456e+01 -6.8522686e+01
7.5732422e+02 8.2245608e+01 -1.0598798e+02
7.8515625e+02 7.9875979e+01 -1.4555658e+02
8.1152344e+02 8.0345819e+01 -1.7119849e+02
8.4082031e+02 8.1427533e+01 1.5101718e+02
8.7011719e+02 8.0006639e+01 1.1471179e+02
9.0087891e+02 8.1774819e+01 7.1458972e+01
9.3310547e+02 8.0773591e+01 2.7770781e+01
9.6533203e+02 7.9543831e+01 -1.8786504e+01
1.0004883e+03 7.8776298e+01 -6.0679887e+01
1.0356445e+03 7.8465839e+01 -1.0970138e+02
1.0722656e+03 7.6342784e+01 -1.5378222e+02
1.1088867e+03 7.6685534e+01 1.6890582e+02
1.1484375e+03 7.5247574e+01 1.1391245e+02
1.1894531e+03 7.4324180e+01 7.3664923e+01
1.2304688e+03 7.4593671e+01 2.1851515e+01
1.2744141e+03 7.3407040e+01 -2.0466131e+01
1.3198242e+03 7.3290389e+01 -8.8266019e+01
1.3666992e+03 7.2749723e+01 -1.2959524e+02
1.4135742e+03 7.1880826e+01 1.6922977e+02
1.4633789e+03 7.2296335e+01 1.1600736e+02
1.5161133e+03 7.0670777e+01 5.9097382e+01
1.5688477e+03 7.1058575e+01 -1.3039217e+01
1.6245117e+03 7.2362966e+01 -7.1323590e+01
1.6816406e+03 7.0474269e+01 -1.3665460e+02
1.7416992e+03 7.1640806e+01 1.4152710e+02
1.8032227e+03 7.0502678e+01 7.5518215e+01
1.8662109e+03 6.8882256e+01 9.7035602e+00
1.9321289e+03 6.9252422e+01 -6.5880597e+01
1.9995117e+03 7.1476984e+01 -1.4146010e+02
2.0698242e+03 7.2809889e+01 1.3539369e+02
2.1430664e+03 7.2688184e+01 3.7318387e+01
2.2192383e+03 7.1826534e+01 -5.2555722e+01
2.2968750e+03 7.2260662e+01 -1.3740835e+02
2.3789063e+03 7.3695023e+01 1.2585707e+02
2.4624023e+03 7.3403674e+01 1.9687004e+01
2.5488281e+03 7.3047309e+01 -8.2576919e+01
2.6396484e+03 7.1935716e+01 1.7716492e+02
2.7319336e+03 7.2290760e+01 7.3923002e+01
2.8286133e+03 7.2739446e+01 -3.8061168e+01
2.9282227e+03 7.2463303e+01 -1.6041698e+02
3.0307617e+03 7.0633139e+01 9.4908521e+01
3.1376953e+03 7.0721232e+01 -1.5401235e+01
3.2490234e+03 7.1621900e+01 -1.5223257e+02
3.3632813e+03 6.9854254e+01 8.6289470e+01
3.4819336e+03 7.0288798e+01 -3.4298623e+01
3.6049805e+03 7.0622278e+01 1.7579206e+02
3.7324219e+03 7.0576815e+01 5.0057604e+01
3.8642578e+03 6.8072722e+01 -8.7423387e+01
4.0004883e+03 7.0405144e+01 1.2840666e+02
4.1411133e+03 7.0817744e+01 -3.7645083e+01
4.2875977e+03 7.0455078e+01 1.7658438e+02
4.4384766e+03 7.0390351e+01 6.6995302e+00
4.5952148e+03 7.1113488e+01 -1.6201125e+02
4.7563477e+03 7.0203500e+01 2.1521467e+01
4.9248047e+03 7.0903768e+01 -1.6555070e+02
5.0976563e+03 6.9299604e+01 1.6113878e+01
5.2778320e+03 6.9179723e+01 1.7436010e+02
5.4638672e+03 7.0161260e+01 -1.3558320e+01
5.6572266e+03 6.9568557e+01 1.2998947e+02
5.8564453e+03 6.9310799e+01 -7.8117143e+01
6.0629883e+03 7.0047211e+01 5.4911622e+01
6.2768555e+03 6.9309380e+01 1.7981456e+02
6.4980469e+03 6.8525551e+01 -5.7595956e+01
6.7265625e+03 6.7578833e+01 5.7929854e+01
6.9638672e+03 6.7287511e+01 1.6906646e+02
7.2099609e+03 6.7626136e+01 -9.6869026e+01
7.4648438e+03 6.7590195e+01 -1.1749210e+01
7.7270508e+03 6.6903758e+01 6.6344196e+01
7.9995117e+03 6.6146492e+01 1.2926582e+02
8.2822266e+03 6.5902389e+01 -1.7166437e+02
8.5737305e+03 6.4975949e+01 -1.2022684e+02
8.8769531e+03 6.3660829e+01 -8.6658894e+01
9.1889648e+03 6.3329984e+01 -6.0389975e+01
9.5141602e+03 6.2119531e+01 -4.4019032e+01
9.8496094e+03 6.1296269e+01 -3.8270758e+01
1.0196777e+04 5.9800318e+01 -4.3421219e+01
1.0555664e+04 5.9114187e+01 -5.2859575e+01
1.0927734e+04 5.8880994e+01 -7.8712447e+01
1.1312988e+04 5.9461465e+01 -1.2424631e+02
1.1712891e+04 6.0143858e+01 1.7622268e+02
1.2125977e+04 6.0379488e+01 9.7140843e+01
1.2553711e+04 6.0322573e+01 -8.0520150e-01
1.2996094e+04 6.0327898e+01 -1.1241190e+02
1.3454590e+04 5.9932598e+01 1.1680312e+02
1.3929199e+04 5.9296051e+01 -3.1456055e+01
1.4419922e+04 5.7972481e+01 1.6962106e+02
1.4928223e+04 5.8494714e+01 -3.3790652e+00
1.5455566e+04 5.9093985e+01 1.5135498e+02
1.6000488e+04 5.8490401e+01 -7.2861651e+01
1.6564453e+04 5.7877602e+01 4.2321913e+01
1.7148926e+04 5.7106297e+01 1.3299077e+02
1.7752441e+04 5.5467302e+01 -1.5699675e+02
1.8379395e+04 5.4134060e+01 -1.0554512e+02
1.9026855e+04 5.2068194e+01 -7.8146384e+01
1.9697754e+04 4.7317564e+01 -4.3463079e+01
1.9999512e+04 4.8176678e+01 -4.8820489e+00
];
