Freq[Hz]     dBSPL  Phase[Deg]
22.4 -40.44024237233927 0.0
23.0 -36.446989232158614 0.0
23.6 -34.948819672648426 0.0
24.0 -31.052333380924182 0.0
25.0 -29.153551799242308 0.0
25.8 -24.955462652951553 0.0
26.5 -23.156037916276063 0.0
27.2 -21.456482020063675 0.0
28.0 -19.956807851303438 0.0
29.0 -18.3570986630848 0.0
30.0 -15.857458272909298 0.0
30.7 -14.057660090146427 0.0
31.5 -12.357815886111268 0.0
32.5 -10.357964109207941 0.0
33.5 -8.358081848374397 0.0
34.5 -7.0581450567896695 0.0
35.5 -6.058187632866634 0.0
36.5 -4.4582463390791105 0.0
37.5 -3.8582657111633694 0.0
38.7 -3.3582808632434364 0.0
40.0 -3.458277901000727 0.0
41.2 -3.558274906275045 0.0
42.5 -3.8582657101109277 0.0
43.7 -3.958262569522489 0.0
45.0 -4.258252937913596 0.0
46.2 -4.258252941767239 0.0
47.5 -4.158256188284071 0.0
48.7 -4.058259380361463 0.0
50.0 -3.8582656894113256 0.0
51.5 -3.658271857214558 0.0
53.0 -3.158286634679513 0.0
54.5 -2.6583006499166117 0.0
56.0 -1.9583188962355678 0.0
58.0 -1.358333403318369 0.0
60.0 -0.8583447605142425 0.0
61.5 -0.5583513060331455 0.0
63.0 -0.25835754655653886 0.0
65.0 -0.1583595879457107 0.0
67.0 -0.15835948897644414 0.0
69.0 -0.05836161019709607 0.0
71.0 -0.2583574946033025 0.0
73.0 -0.35835539675689176 0.0
75.0 -0.5583510938167677 0.0
77.5 -0.8583444174855686 0.0
80.0 -1.1583375854955023 0.0
82.5 -1.258334868868161 0.0
85.0 -1.3583329787130083 0.0
87.5 -1.458330327931364 0.0
90.0 -1.4583304284661978 0.0
92.5 -1.4583300191129354 0.0
95.0 -1.3583324894882622 0.0
97.5 -1.3583300581326938 0.0
100.0 -1.258332955440295 0.0
103.0 -1.1583358357719078 0.0
106.0 -1.1583325670307119 0.0
109.0 -1.0583374267677925 0.0
112.0 -0.9583386511300631 0.0
115.0 -0.9583398367748828 0.0
118.0 -0.9583361949377434 0.0
122.0 -0.9583381178280774 0.0
125.0 -0.9583285858317652 0.0
128.0 -0.9583302529743918 0.0
132.0 -0.8583210201912408 0.0
136.0 -0.7583274461501617 0.0
140.0 -0.5583272547038689 0.0
145.0 -0.25832765661246526 0.0
150.0 -0.058293050409503167 0.0
155.0 0.041709857037346865 0.0
160.0 0.1417053809608717 0.0
165.0 0.24170507972161204 0.0
170.0 0.3417129625842108 0.0
175.0 0.3417553457373117 0.0
180.0 0.44176867533911945 0.0
185.0 0.4418311043882568 0.0
190.0 0.4418611172695961 0.0
195.0 0.3418884221954954 0.0
200.0 -0.15806003061391039 0.0
206.0 -0.1579265628515003 0.0
212.0 0.04233066957883125 0.0
218.0 0.1423698327643308 0.0
224.0 0.24292529436200994 0.0
230.0 0.14352474632357826 0.0
236.0 0.4440637826612459 0.0
240.0 0.645484076918521 0.0
250.0 -0.04921262228640444 0.0
258.0 -0.24209468436410475 0.0
265.0 -0.2287866135038712 0.0
272.0 -0.40933277547652835 0.0
280.0 -0.4875836615921685 0.0
290.0 -0.41610395914264586 0.0
300.0 -0.3069856444169403 0.0
307.0 -0.1542742653727771 0.0
315.0 -0.026359984052547247 0.0
325.0 -0.3769497935391257 0.0
335.0 -0.6129792172693982 0.0
345.0 -0.56033306053871 0.0
355.0 -0.22611477172000605 0.0
365.0 0.3948953852692938 0.0
375.0 0.7299361807223192 0.0
387.0 1.1790548110465409 0.0
400.0 1.5128947418334064 0.0
412.0 1.3248461118519401 0.0
425.0 1.0187018456782653 0.0
437.0 0.5266356461554409 0.0
450.0 0.8560616549095528 0.0
462.0 1.4685193228267508 0.0
475.0 1.681484182600002 0.0
487.0 1.7783363932366711 0.0
500.0 0.767134412855512 0.0
515.0 0.3763877958374451 0.0
530.0 0.36233785811236885 0.0
545.0 0.5011722544191741 0.0
560.0 0.3573547693678165 0.0
580.0 -1.6000454109794617 0.0
600.0 -1.2597064919071812 0.0
615.0 -1.527456490399004 0.0
630.0 -2.7651165758461786 0.0
650.0 -1.8569797233885197 0.0
670.0 -2.385329803708842 0.0
690.0 -1.9103311619010555 0.0
710.0 -0.5428455284231148 0.0
730.0 -0.15451191447129986 0.0
750.0 -0.05560002817847476 0.0
775.0 1.5285341371952939 0.0
800.0 2.3187598777532514 0.0
825.0 2.7124085007612706 0.0
850.0 3.2104914157308997 0.0
875.0 3.4073754011793085 0.0
900.0 4.504345772707666 0.0
925.0 3.302726207925531 0.0
950.0 3.0015351215988915 0.0
975.0 2.6006940912711087 0.0
1000.0 1.4004083919684263 0.0
1030.0 0.9998668490914611 0.0
1060.0 2.0987293534400067 0.0
1090.0 1.3985303332653132 0.0
1120.0 0.7983784326733883 0.0
1150.0 0.1983315727710533 0.0
1180.0 -0.8015631045335283 0.0
1220.0 -1.001753245067647 0.0
1250.0 -1.5017991179936416 0.0
1280.0 -0.4019270264286092 0.0
1320.0 -1.5018926170738212 0.0
1360.0 -1.201919093439514 0.0
1400.0 -1.801904825436651 0.0
1450.0 -1.5020117982401615 0.0
1500.0 -1.5020458715591047 0.0
1550.0 -2.002136689744148 0.0
1600.0 -2.1022168130448335 0.0
1650.0 -1.8022418334388135 0.0
1700.0 -1.8022546248781168 0.0
1750.0 -2.002267596862808 0.0
1800.0 -2.0022789241232886 0.0
1850.0 -2.102279020736887 0.0
1900.0 -3.4022443578595727 0.0
1950.0 -4.302220506048982 0.0
2000.0 -3.002271872675834 0.0
2060.0 -2.70228378739084 0.0
2120.0 -1.4023209414445006 0.0
2180.0 -2.5022946645298134 0.0
2240.0 -0.7023400143430081 0.0
2300.0 -0.10235348990281068 0.0
2360.0 0.4976337844453127 0.0
2400.0 1.0976221370615349 0.0
2500.0 0.49763304801172126 0.0
2580.0 -0.4023491194177211 0.0
2650.0 0.9976236010379438 0.0
2720.0 1.3976164733782355 0.0
2800.0 1.1976198490608283 0.0
2900.0 0.2976363269113165 0.0
3000.0 0.09764021075957885 0.0
3070.0 1.397616346565627 0.0
3150.0 -0.10235575937137753 0.0
3250.0 -1.1023343138026291 0.0
3350.0 -0.9023388067462434 0.0
3450.0 -0.3023516462155982 0.0
3550.0 -0.1023557618161135 0.0
3650.0 -0.20235376885189282 0.0
3750.0 0.4976324372523777 0.0
3870.0 2.397600188505976 0.0
4000.0 1.4976145670856056 0.0
4120.0 0.8976250217046129 0.0
4250.0 1.7976095997853179 0.0
4370.0 0.7976268327655447 0.0
4500.0 1.997606383176219 0.0
4620.0 3.1975885722746114 0.0
4750.0 1.297617966983239 0.0
4870.0 1.0976214518329925 0.0
5000.0 0.49763240126404185 0.0
5150.0 1.097621451749859 0.0
5300.0 2.1976032407195447 0.0
5450.0 1.8976079808241053 0.0
5600.0 -0.3023517723524094 0.0
5800.0 0.9976232243777616 0.0
6000.0 0.897625017674585 0.0
6150.0 -0.7023432952678661 0.0
6300.0 -1.302329824760676 0.0
6500.0 -0.30235177237091193 0.0
6700.0 -1.802317866300939 0.0
6900.0 -6.302172755064518 0.0
7100.0 -5.102219064184425 0.0
7300.0 -4.302246567511332 0.0
7500.0 -2.1023103537472565 0.0
7750.0 -1.302329824799827 0.0
8000.0 -1.5023251238411035 0.0
8250.0 -0.5023475826420452 0.0
8500.0 -0.3023517723749336 0.0
8750.0 0.9976232243434993 0.0
9000.0 -0.3023517723909066 0.0
9250.0 -1.202332134986392 0.0
9500.0 -0.8023411143240935 0.0
9750.0 -2.2023077912695754 0.0
10000.0 -3.7022655949161845 0.0
10300.0 -2.5022999246615143 0.0
10600.0 -0.2023538313224691 0.0
10900.0 2.2976016966374146 0.0
11200.0 1.8976079807999042 0.0
11500.0 -0.40234968956332295 0.0
11800.0 -0.0023578788375004933 0.0
12200.0 0.0976401320925504 0.0
12500.0 -5.202215444682338 0.0
12800.0 -2.802291781647469 0.0
13200.0 -2.4023025771577977 0.0
13600.0 -0.9023389081262394 0.0
14000.0 2.497598661400673 0.0
14500.0 3.0975899640297513 0.0
15000.0 3.2975871958766447 0.0
15500.0 -0.6023454513277358 0.0
16000.0 -6.502164395634196 0.0
16500.0 -8.102090115925321 0.0
17000.0 -11.30189344829121 0.0
17500.0 -12.901764369382548 0.0
18000.0 -11.50187858332177 0.0
18500.0 -11.50187858333858 0.0
19000.0 -15.001554528807205 0.0
19500.0 -15.80146026416054 0.0
