Freq[Hz]     dBSPL  Phase[Deg]
22.4 0.0774525366029053 0.0
23.0 0.08296551419051923 0.0
23.6 0.09092812003990502 0.0
24.0 0.10313178916588583 0.0
25.0 0.1436734795755399 0.0
25.8 0.21167558147119792 0.0
26.5 0.23986287041228138 0.0
27.2 0.29417000784698644 0.0
28.0 0.3687416913075623 0.0
29.0 0.4669258942547003 0.0
30.0 0.5773764057307886 0.0
30.7 0.705062486774338 0.0
31.5 0.8048178548242788 0.0
32.5 1.0347779227880238 0.0
33.5 1.2431513426032978 0.0
34.5 1.443406437445418 0.0
35.5 1.5873926525532767 0.0
36.5 1.7626357177081928 0.0
37.5 1.8759874143103445 0.0
38.7 1.9350788359554087 0.0
40.0 1.915199383365703 0.0
41.2 1.895502666098423 0.0
42.5 1.8374962333739404 0.0
43.7 1.7626357201878164 0.0
45.0 1.6905371107774272 0.0
46.2 1.6905371101106539 0.0
47.5 1.6729345995292704 0.0
48.7 1.5873926644734269 0.0
50.0 1.6211202754843157 0.0
51.5 1.6041757626150144 0.0
53.0 1.6554984727028312 0.0
54.5 1.818517782800214 0.0
56.0 1.9350788759270046 0.0
58.0 2.1224271845933487 0.0
60.0 2.2560652278682767 0.0
61.5 2.4456705489003525 0.0
63.0 2.596793268644163 0.0
65.0 2.7287846201789705 0.0
67.0 2.728784621169652 0.0
69.0 2.8106901764953136 0.0
71.0 2.894668323247089 0.0
73.0 2.9807508259879256 0.0
75.0 3.039323685264307 0.0
77.5 2.980750935028425 0.0
80.0 2.8946685321724743 0.0
82.5 2.894668855340882 0.0
85.0 2.8106903556540317 0.0
87.5 2.755858589463827 0.0
90.0 2.7019383709766487 0.0
92.5 2.5967938855542627 0.0
95.0 2.4951793857830182 0.0
97.5 2.445672721798445 0.0
100.0 2.4456727217984735 0.0
103.0 2.4951804695548674 0.0
106.0 2.6489223222150713 0.0
109.0 2.7287871183612538 0.0
112.0 2.7558611839116622 0.0
115.0 2.7831622668320364 0.0
118.0 2.783165164403428 0.0
122.0 2.75586172551138 0.0
125.0 2.7558697256765186 0.0
128.0 2.755867993157466 0.0
132.0 2.728803688117978 0.0
136.0 2.6489361297107052 0.0
140.0 2.59681912823703 0.0
145.0 2.571086830806081 0.0
150.0 2.520307890201849 0.0
155.0 2.445730285867299 0.0
160.0 2.373059059714137 0.0
165.0 2.3022686384820332 0.0
170.0 2.2333689070961924 0.0
175.0 2.1663022189566163 0.0
180.0 2.100977168762739 0.0
185.0 1.9960208235675339 0.0
190.0 1.8957159235359597 0.0
195.0 1.6907251062996664 0.0
200.0 1.1784032123247954 0.0
206.0 1.55480230699672 0.0
212.0 1.7088937108393907 0.0
218.0 1.6217623817279048 0.0
224.0 1.5069731707487506 0.0
230.0 1.2441096528111615 0.0
236.0 0.8151692681831122 0.0
240.0 1.5560674459416077 0.0
250.0 1.6760965966616226 0.0
258.0 1.5912761305218481 0.0
265.0 1.4055305881245204 0.0
272.0 1.2926586329541578 0.0
280.0 1.1753839183904802 0.0
290.0 1.087180134712824 0.0
300.0 1.01608419228711 0.0
307.0 0.9527843136395262 0.0
315.0 0.8781264256810317 0.0
325.0 0.8246676530999366 0.0
335.0 0.8455632890577789 0.0
345.0 0.7307330968440482 0.0
355.0 0.8973955072014803 0.0
365.0 0.8251190197589153 0.0
375.0 0.7246844212539258 0.0
387.0 1.000277076218751 0.0
400.0 0.9278976312805867 0.0
412.0 0.6403623287662015 0.0
425.0 0.823635453435756 0.0
437.0 1.194441835923726 0.0
450.0 1.0900860634335743 0.0
462.0 0.854888595317334 0.0
475.0 1.0346706069588834 0.0
487.0 0.5239838131236922 0.0
500.0 1.26168192160101 0.0
515.0 1.2349097260799482 0.0
530.0 0.9546268209711428 0.0
545.0 0.8022783919434175 0.0
560.0 0.7044450663494217 0.0
580.0 1.0474343445455503 0.0
600.0 1.1863700555607437 0.0
615.0 1.2302665355213094 0.0
630.0 1.440891549317186 0.0
650.0 1.6749928331403794 0.0
670.0 1.4418799195620835 0.0
690.0 1.3067644815694166 0.0
710.0 1.0214973529400027 0.0
730.0 0.6081113025739313 0.0
750.0 0.17472036769639487 0.0
775.0 0.49091921380392023 0.0
800.0 0.5719021232483499 0.0
825.0 0.786116910673087 0.0
850.0 0.8117512684381438 0.0
875.0 0.9149691434111418 0.0
900.0 1.4222431670706897 0.0
925.0 1.334026229640017 0.0
950.0 1.3196215670090083 0.0
975.0 1.0639140061951764 0.0
1000.0 0.6495061811215095 0.0
1030.0 0.8746145945896302 0.0
1060.0 1.3053244181002128 0.0
1090.0 0.9542546013374675 0.0
1120.0 0.9235059454948669 0.0
1150.0 0.6638291148081521 0.0
1180.0 0.5373509064639137 0.0
1220.0 0.27657476871560505 0.0
1250.0 0.25260756977893095 0.0
1280.0 0.5138253196661253 0.0
1320.0 0.2673358345634256 0.0
1360.0 0.35467605231575305 0.0
1400.0 0.7332411111322585 0.0
1450.0 0.6938109131559855 0.0
1500.0 0.6711329099393595 0.0
1550.0 0.3428432579960514 0.0
1600.0 0.5137859104544589 0.0
1650.0 0.627909489963784 0.0
1700.0 0.7747746491423868 0.0
1750.0 0.5137839840670466 0.0
1800.0 0.9133841167017636 0.0
1850.0 0.7662848991817128 0.0
1900.0 0.7015074938903609 0.0
1950.0 0.5253962191658275 0.0
2000.0 0.725158304170094 0.0
2060.0 0.7833519357535295 0.0
2120.0 0.5137832559490931 0.0
2180.0 0.33898896882062957 0.0
2240.0 0.19893218493211862 0.0
2300.0 0.20351202479845654 0.0
2360.0 0.3351824327051247 0.0
2400.0 0.3062035224947124 0.0
2500.0 0.3167702770166301 0.0
2580.0 0.6637261412006268 0.0
2650.0 0.7093072265427907 0.0
2720.0 0.36684643019461305 0.0
2800.0 0.3794605930356596 0.0
2900.0 0.5617815788269525 0.0
3000.0 0.6349186386044607 0.0
3070.0 0.5195579976825115 0.0
3150.0 0.3351824121546656 0.0
3250.0 0.3428377166073773 0.0
3350.0 0.354643077057716 0.0
3450.0 0.4246472306309812 0.0
3550.0 0.4199019477080128 0.0
3650.0 0.338988872758506 0.0
3750.0 0.4542368020144494 0.0
3870.0 0.30275879642411496 0.0
4000.0 0.36684642106997956 0.0
4120.0 0.4913006243677245 0.0
4250.0 0.6073182149816887 0.0
4370.0 0.4105661509274796 0.0
4500.0 0.4152084321666507 0.0
4620.0 0.4858311256474366 0.0
4750.0 0.32769483620396045 0.0
4870.0 0.38810476803993765 0.0
5000.0 0.16390180499979579 0.0
5150.0 0.2178859315716153 0.0
5300.0 0.27342248830650817 0.0
5450.0 0.25255647880879906 0.0
5600.0 0.3027587959774536 0.0
5800.0 0.2993521810948039 0.0
6000.0 0.2993521810915212 0.0
6150.0 0.29265159329659696 0.0
6300.0 0.2993521810998061 0.0
6500.0 0.23862093561612596 0.0
6700.0 0.208196022221955 0.0
6900.0 0.23062655067909077 0.0
7100.0 0.2468885175267843 0.0
7300.0 0.4491693372997645 0.0
7500.0 0.4014331603240606 0.0
7750.0 0.47506918792780084 0.0
8000.0 0.449169337293128 0.0
8250.0 0.4913006241900888 0.0
8500.0 0.42944482211595414 0.0
8750.0 0.45423680111616704 0.0
9000.0 0.37946058691632345 0.0
9250.0 0.3203714600791443 0.0
9500.0 0.1795523867470763 0.0
9750.0 0.18160991951145888 0.0
10000.0 0.18369078160739605 0.0
10300.0 0.10259362135174399 0.0
10600.0 0.11769069709069413 0.0
10900.0 0.1966805583699056 0.0
11200.0 0.22802093938139478 0.0
11500.0 0.12041315018467458 0.0
11800.0 0.2081960222466961 0.0
12200.0 0.13654307407506394 0.0
12500.0 0.15132100170708895 0.0
12800.0 0.12461451662665013 0.0
13200.0 0.11372124138802064 0.0
13600.0 0.16204302837039108 0.0
14000.0 0.24134599920003552 0.0
14500.0 0.3132088140619942 0.0
15000.0 0.2893568194890861 0.0
15500.0 0.16204302836968054 0.0
16000.0 0.09688650961177814 0.0
16500.0 0.0648731351765548 0.0
17000.0 0.08739788951002936 0.0
17500.0 0.10617703533272049 0.0
18000.0 0.07359470318101557 0.0
18500.0 0.05524663448100853 0.0
19000.0 0.0656215001403524 0.0
19500.0 0.058509201825216905 0.0
