Freq[Hz]     dBSPL  Phase[Deg]
22.4 0.1453232995874032 0.0
23.0 0.10920447259336186 0.0
23.6 0.13725792559347383 0.0
24.0 0.24817287037703295 0.0
25.0 0.3148319686217178 0.0
25.8 0.5222188193989297 0.0
26.5 0.5773764057449853 0.0
27.2 0.712900615595089 0.0
28.0 0.8227037450218688 0.0
29.0 0.9907611175855635 0.0
30.0 1.2565533185169073 0.0
30.7 1.587392651308491 0.0
31.5 1.7997157033608744 0.0
32.5 2.3492024993852283 0.0
33.5 2.755858087497387 0.0
34.5 3.1593527697691286 0.0
35.5 3.610645493083638 0.0
36.5 4.074963768986095 0.0
37.5 4.343739312465814 0.0
38.7 4.463036204715252 0.0
40.0 4.422994705452169 0.0
41.2 4.343739313041482 0.0
42.5 4.304524103889321 0.0
43.7 4.265582983272353 0.0
45.0 4.150397103255244 0.0
46.2 4.074963771824599 0.0
47.5 4.150397104435214 0.0
48.7 4.150397105305103 0.0
50.0 4.2655829881107366 0.0
51.5 4.383229299546457 0.0
53.0 4.503354433561498 0.0
54.5 4.793379889866628 0.0
56.0 5.008965260988532 0.0
58.0 5.277023854553818 0.0
60.0 5.508253912223154 0.0
61.5 5.650431118694485 0.0
63.0 5.844022994989743 0.0
65.0 5.942544763104564 0.0
67.0 5.893140014878853 0.0
69.0 5.893140013181153 0.0
71.0 5.844023038721019 0.0
73.0 5.795193732964719 0.0
75.0 5.698397957132144 0.0
77.5 5.555359428369684 0.0
80.0 5.414903333894131 0.0
82.5 5.414903366168829 0.0
85.0 5.32269793110251 0.0
87.5 5.277024068242497 0.0
90.0 5.277024255445639 0.0
92.5 5.277024422529877 0.0
95.0 5.322698383096139 0.0
97.5 5.322698414417232 0.0
100.0 5.368658261615153 0.0
103.0 5.414904317054493 0.0
106.0 5.414904303973827 0.0
109.0 5.461436809968973 0.0
112.0 5.508255902942537 0.0
115.0 5.461438652204407 0.0
118.0 5.461438979579015 0.0
122.0 5.461441224027951 0.0
125.0 5.4614407621609615 0.0
128.0 5.508260473319297 0.0
132.0 5.555367154177816 0.0
136.0 5.602762064322633 0.0
140.0 5.698409823028101 0.0
145.0 5.844040202306957 0.0
150.0 5.942563847235718 0.0
155.0 6.0422420114256 0.0
160.0 6.092512709937466 0.0
165.0 6.143077049485356 0.0
170.0 6.143082264385697 0.0
175.0 6.143092728633789 0.0
180.0 6.193947841660318 0.0
185.0 6.1939443606438545 0.0
190.0 6.193980890449666 0.0
195.0 6.143166741519721 0.0
200.0 6.042398196631751 0.0
206.0 5.9427910750604696 0.0
212.0 5.9925185159940355 0.0
218.0 6.092901814013885 0.0
224.0 6.143544798095334 0.0
230.0 6.093385434996193 0.0
236.0 6.246588885764055 0.0
240.0 6.298941165322063 0.0
250.0 5.947402517432408 0.0
258.0 5.951181358838014 0.0
265.0 5.907885550812537 0.0
272.0 5.868338203950131 0.0
280.0 5.780188386537347 0.0
290.0 5.818194686829372 0.0
300.0 5.921309992243181 0.0
307.0 6.005886645802875 0.0
315.0 6.08007297614887 0.0
325.0 6.010209947259256 0.0
335.0 5.996037586250239 0.0
345.0 6.041268947121509 0.0
355.0 6.280756899010257 0.0
365.0 6.494618931540842 0.0
375.0 6.5418993095118765 0.0
387.0 6.906560373568169 0.0
400.0 6.690045831959367 0.0
412.0 6.859017295587989 0.0
425.0 6.974405386298969 0.0
437.0 6.7928014721564125 0.0
450.0 6.374154609811711 0.0
462.0 6.745247760416419 0.0
475.0 6.669892310512267 0.0
487.0 6.792728329557022 0.0
500.0 6.823821218247446 0.0
515.0 6.762703083951607 0.0
530.0 6.374375843235612 0.0
545.0 6.1071201679939975 0.0
560.0 5.798427545618722 0.0
580.0 6.110559366401432 0.0
600.0 5.932675721394162 0.0
615.0 5.742442512696556 0.0
630.0 5.57991555658333 0.0
650.0 5.928135313439128 0.0
670.0 6.200796364302462 0.0
690.0 6.596410125326187 0.0
710.0 6.534695521267622 0.0
730.0 6.063888762118822 0.0
750.0 5.957425084572748 0.0
775.0 6.199562157077892 0.0
800.0 5.8936584735886015 0.0
825.0 5.412817286893215 0.0
850.0 4.748245003787744 0.0
875.0 3.924375640920573 0.0
900.0 4.911592975477873 0.0
925.0 5.400427810902897 0.0
950.0 6.024174631989837 0.0
975.0 6.328056679106709 0.0
1000.0 6.173252167617832 0.0
1030.0 7.02288535404962 0.0
1060.0 6.912285168887365 0.0
1090.0 6.748677896752341 0.0
1120.0 6.911845152226789 0.0
1150.0 6.748349554368247 0.0
1180.0 6.748173439766219 0.0
1220.0 6.171295207082181 0.0
1250.0 6.802148383746015 0.0
1280.0 7.021600896760134 0.0
1320.0 7.302299117439759 0.0
1360.0 6.6939912158157995 0.0
1400.0 6.586992038321554 0.0
1450.0 6.170808114098975 0.0
1500.0 5.77310828372967 0.0
1550.0 5.8217389694369786 0.0
1600.0 5.628657004719898 0.0
1650.0 5.076963115026629 0.0
1700.0 5.032834160611728 0.0
1750.0 4.32579926707254 0.0
1800.0 3.494617812472484 0.0
1850.0 3.629161411228594 0.0
1900.0 4.095341606628665 0.0
1950.0 5.16601758988773 0.0
2000.0 6.480925094832557 0.0
2060.0 7.5895988986707295 0.0
2120.0 6.801567052945671 0.0
2180.0 7.188643632326688 0.0
2240.0 6.910735700746656 0.0
2300.0 6.965748275789053 0.0
2360.0 6.5336450844526155 0.0
2400.0 6.324470609329069 0.0
2500.0 4.60712927698232 0.0
2580.0 4.816445630654144 0.0
2650.0 5.393727241678164 0.0
2720.0 4.690015275047784 0.0
2800.0 5.39372717434091 0.0
2900.0 5.5337902307093 0.0
3000.0 6.019334215090893 0.0
3070.0 6.376332987013598 0.0
3150.0 5.393727131597245 0.0
3250.0 5.581051337042297 0.0
3350.0 4.774021206340109 0.0
3450.0 4.365142930515944 0.0
3550.0 5.969485400150418 0.0
3650.0 7.188642541316085 0.0
3750.0 6.7474085842503655 0.0
3870.0 6.965747647642203 0.0
4000.0 6.8560073161606 0.0
4120.0 5.7729678997556135 0.0
4250.0 5.919924389806269 0.0
4370.0 5.3476121627068665 0.0
4500.0 5.166009026217893 0.0
4620.0 6.170607464868638 0.0
4750.0 5.870651180362302 0.0
4870.0 5.772967898584241 0.0
5000.0 5.5337901846883994 0.0
5150.0 4.77402119852826 0.0
5300.0 4.48488919308879 0.0
5450.0 3.0553870590128156 0.0
5600.0 3.085162750646816 0.0
5800.0 2.362097653595754 0.0
6000.0 2.222948614760284 0.0
6150.0 1.945947680195701 0.0
6300.0 2.663221581748701 0.0
6500.0 4.133060083568552 0.0
6700.0 5.39372712110152 0.0
6900.0 6.119895243606592 0.0
7100.0 6.019334182739158 0.0
7300.0 5.870651180263877 0.0
7500.0 5.12132090551404 0.0
7750.0 5.03279748878316 0.0
8000.0 5.7729678984787824 0.0
8250.0 6.272895051980484 0.0
8500.0 5.256239831239441 0.0
8750.0 4.057873854558451 0.0
9000.0 3.3641337836852614 0.0
9250.0 4.81644540411628 0.0
9500.0 5.032797488791445 0.0
9750.0 3.874607264292081 0.0
10000.0 4.484889193028295 0.0
10300.0 6.3244702667834645 0.0
10600.0 7.301791108768839 0.0
10900.0 6.170607464650175 0.0
11200.0 4.988961441971384 0.0
11500.0 5.581051329944103 0.0
11800.0 4.525357892355004 0.0
12200.0 4.525357892356084 0.0
12500.0 3.396371401140854 0.0
12800.0 4.607128878318662 0.0
13200.0 4.020685110605768 0.0
13600.0 5.919924388958805 0.0
14000.0 6.965747640920881 0.0
14500.0 8.06461171222287 0.0
15000.0 7.647999428158641 0.0
15500.0 4.731877959430037 0.0
16000.0 3.428861030145839 0.0
16500.0 3.2689226637893114 0.0
17000.0 3.494600384661055 0.0
17500.0 1.9459476801870608 0.0
18000.0 1.277494379885482 0.0
18500.0 1.9259684929835146 0.0
19000.0 1.4212548735557675 0.0
19500.0 0.7495725202680461 0.0
