Freq[Hz]     dBSPL  Phase[Deg]
22.4 -42.746612004701234 0.0
23.0 -42.44701656479927 0.0
23.6 -39.05074642319332 0.0
24.0 -35.95308396741109 0.0
25.0 -33.25454043735215 0.0
25.8 -28.056340311550116 0.0
26.5 -26.756645574076003 0.0
27.2 -25.256945469231198 0.0
28.0 -23.957166626324636 0.0
29.0 -22.057435769977744 0.0
30.0 -19.757691848420663 0.0
30.7 -17.657873261561917 0.0
31.5 -16.057984852395194 0.0
32.5 -14.0580983254265 0.0
33.5 -12.358176227624895 0.0
34.5 -10.658240282163831 0.0
35.5 -9.658272503738715 0.0
36.5 -8.458306579997696 0.0
37.5 -7.758324387360588 0.0
38.7 -7.358333936882033 0.0
40.0 -7.258336255826464 0.0
41.2 -7.55832921394024 0.0
42.5 -7.758324383006837 0.0
43.7 -7.858321924702494 0.0
45.0 -8.258311805568113 0.0
46.2 -8.35830919672459 0.0
47.5 -8.358309196111634 0.0
48.7 -8.558303891984465 0.0
50.0 -8.158314362686127 0.0
51.5 -7.958319425721442 0.0
53.0 -7.458331541719247 0.0
54.5 -6.758347421502975 0.0
56.0 -6.058362070331043 0.0
58.0 -5.45837368493558 0.0
60.0 -4.9583827950584975 0.0
61.5 -4.558389700858299 0.0
63.0 -4.158396288346623 0.0
65.0 -3.85840104433521 0.0
67.0 -3.8584010261636763 0.0
69.0 -3.8584009676790743 0.0
71.0 -4.05839772337076 0.0
73.0 -4.058397760923526 0.0
75.0 -4.158396048616751 0.0
77.5 -4.458390964657411 0.0
80.0 -4.858384083525763 0.0
82.5 -5.0583801353512 0.0
85.0 -5.458372750669369 0.0
87.5 -5.5583707934091535 0.0
90.0 -5.758366662557847 0.0
92.5 -5.958362215500955 0.0
95.0 -6.058359312491049 0.0
97.5 -5.95836114398621 0.0
100.0 -5.958360064039482 0.0
103.0 -5.758363337516641 0.0
106.0 -5.658364754368449 0.0
109.0 -5.658362259545825 0.0
112.0 -5.658361016062031 0.0
115.0 -5.858355448687561 0.0
118.0 -5.958350090725418 0.0
122.0 -6.15834558068417 0.0
125.0 -6.358335247244327 0.0
128.0 -6.458325921848797 0.0
132.0 -6.65831482862302 0.0
136.0 -6.858304387184091 0.0
140.0 -6.858276631837512 0.0
145.0 -6.55827650386766 0.0
150.0 -6.458260215646703 0.0
155.0 -6.358244649943799 0.0
160.0 -6.358222132508743 0.0
165.0 -6.458203709806753 0.0
170.0 -6.458179464279965 0.0
175.0 -6.658082576976497 0.0
180.0 -6.658032237687024 0.0
185.0 -6.757995422350433 0.0
190.0 -6.95786817073342 0.0
195.0 -7.557650661743779 0.0
200.0 -9.657133377056624 0.0
206.0 -9.156994363739855 0.0
212.0 -8.456697556235554 0.0
218.0 -8.056552685809649 0.0
224.0 -8.055520955635615 0.0
230.0 -8.355243536139326 0.0
236.0 -9.75318230433345 0.0
240.0 -9.651004427024617 0.0
250.0 -8.44755841644016 0.0
258.0 -9.441053052516892 0.0
265.0 -10.726917243262676 0.0
272.0 -11.601295982604327 0.0
280.0 -12.460633958469089 0.0
290.0 -13.066798405326551 0.0
300.0 -13.492990326273343 0.0
307.0 -13.782623589217366 0.0
315.0 -13.299193217364234 0.0
325.0 -13.582939195679273 0.0
335.0 -14.37140523571884 0.0
345.0 -14.602799464897629 0.0
355.0 -13.1567025024451 0.0
365.0 -12.603371873376574 0.0
375.0 -12.217020086275028 0.0
387.0 -11.842591303140253 0.0
400.0 -12.578802575035837 0.0
412.0 -11.822561127546933 0.0
425.0 -11.84327454099845 0.0
437.0 -13.5672482055204 0.0
450.0 -15.388234205881588 0.0
462.0 -15.949459365845172 0.0
475.0 -17.173770656187273 0.0
487.0 -14.231862006200586 0.0
500.0 -13.797216529598899 0.0
515.0 -14.248654902864985 0.0
530.0 -13.479344397443853 0.0
545.0 -13.25181176226657 0.0
560.0 -12.898430742679423 0.0
580.0 -11.272791707833605 0.0
600.0 -12.13650261867464 0.0
615.0 -11.36771251037915 0.0
630.0 -9.629805660441832 0.0
650.0 -10.456905340082699 0.0
670.0 -9.802603302185844 0.0
690.0 -8.034030660128195 0.0
710.0 -8.037092268302516 0.0
730.0 -6.76160487545485 0.0
750.0 -7.66250937714652 0.0
775.0 -8.662483769795486 0.0
800.0 -8.470296628545228 0.0
825.0 -8.476575246852832 0.0
850.0 -9.578533270356502 0.0
875.0 -10.28250001823055 0.0
900.0 -12.085563667359963 0.0
925.0 -11.990281589963686 0.0
950.0 -11.99335951287702 0.0
975.0 -12.395317344528095 0.0
1000.0 -11.397983208237036 0.0
1030.0 -14.297756924481234 0.0
1060.0 -13.899831658900212 0.0
1090.0 -14.000932176527272 0.0
1120.0 -13.801420665714389 0.0
1150.0 -12.80147478306256 0.0
1180.0 -15.201017866796093 0.0
1220.0 -17.20097763597437 0.0
1250.0 -18.00123762791985 0.0
1280.0 -18.30109123646075 0.0
1320.0 -21.300303786715773 0.0
1360.0 -23.200413038462557 0.0
1400.0 -26.499917688801474 0.0
1450.0 -26.700335895077814 0.0
1500.0 -25.70063274277706 0.0
1550.0 -19.901606574427177 0.0
1600.0 -14.702013846537739 0.0
1650.0 -14.102052614790779 0.0
1700.0 -15.801944535646612 0.0
1750.0 -12.80210386232207 0.0
1800.0 -13.20209854277708 0.0
1850.0 -18.001803422418106 0.0
1900.0 -19.901643213314074 0.0
1950.0 -22.50134763749611 0.0
2000.0 -23.201262358132453 0.0
2060.0 -17.701861188268452 0.0
2120.0 -17.50187873076871 0.0
2180.0 -19.801680920115814 0.0
2240.0 -19.001755323941936 0.0
2300.0 -17.10190880514648 0.0
2360.0 -20.001661973943953 0.0
2400.0 -18.901765353254092 0.0
2500.0 -14.002095740444673 0.0
2580.0 -17.401887119059666 0.0
2650.0 -15.102037194404431 0.0
2720.0 -17.501879900691193 0.0
2800.0 -19.801682433376087 0.0
2900.0 -24.901004217067765 0.0
3000.0 -22.60135954886107 0.0
3070.0 -23.30126123934511 0.0
3150.0 -20.60160063560687 0.0
3250.0 -24.701039012364163 0.0
3350.0 -19.60170185596654 0.0
3450.0 -18.20182535823362 0.0
3550.0 -16.50195090945971 0.0
3650.0 -20.401621873511573 0.0
3750.0 -19.60170192467487 0.0
3870.0 -23.30126131432408 0.0
4000.0 -19.301730103914778 0.0
4120.0 -21.10154555045733 0.0
4250.0 -22.401386357716163 0.0
4370.0 -24.40108984276287 0.0
4500.0 -26.00079824738043 0.0
4620.0 -26.200757876460074 0.0
4750.0 -27.500471538430617 0.0
4870.0 -29.10005491139981 0.0
5000.0 -28.20029866258318 0.0
5150.0 -26.700652786834638 0.0
5300.0 -24.201122662338406 0.0
5450.0 -21.90145042587828 0.0
5600.0 -22.801332392075082 0.0
5800.0 -20.901568001032047 0.0
6000.0 -21.00155684321612 0.0
6150.0 -24.801021901878045 0.0
6300.0 -25.500895205640546 0.0
6500.0 -26.800631033684738 0.0
6700.0 -22.001437906804398 0.0
6900.0 -23.301261336990564 0.0
7100.0 -23.40124662866208 0.0
7300.0 -23.10129025077697 0.0
7500.0 -27.700423560142866 0.0
7750.0 -24.90100442160235 0.0
8000.0 -21.30152258857946 0.0
8250.0 -19.001757323570928 0.0
8500.0 -21.90145042584578 0.0
8750.0 -21.0015568432174 0.0
9000.0 -22.30139947306192 0.0
9250.0 -20.2016426108777 0.0
9500.0 -19.201739288056757 0.0
9750.0 -22.80133239189702 0.0
10000.0 -22.40138636354878 0.0
10300.0 -21.901450425479567 0.0
10600.0 -18.801774948254717 0.0
10900.0 -19.801682621834814 0.0
11200.0 -22.701346118937607 0.0
11500.0 -27.000586767491484 0.0
11800.0 -26.90060902758418 0.0
12200.0 -23.80118607203812 0.0
12500.0 -25.200950756314597 0.0
12800.0 -24.90100442141315 0.0
13200.0 -25.100968850948135 0.0
13600.0 -21.501499086016082 0.0
14000.0 -20.701589935130528 0.0
14500.0 -23.101290250897392 0.0
15000.0 -21.301522588599767 0.0
15500.0 -27.800399152606616 0.0
16000.0 -29.999784559560595 0.0
16500.0 -30.999449423884073 0.0
17000.0 -31.599229027542265 0.0
17500.0 -36.296858824463214 0.0
18000.0 -39.893946922632324 0.0
18500.0 -41.192561726475816 0.0
19000.0 -40.19364539147958 0.0
19500.0 -45.68580062023568 0.0
