Freq[Hz]     dBSPL  Phase[Deg]
22.4 0.10195815094859029 0.0
23.0 0.08016186451772 0.0
23.6 0.07656984110147391 0.0
24.0 0.17049204690145814 0.0
25.0 0.22152538143433276 0.0
25.8 0.34461139140273644 0.0
26.5 0.40350300371562753 0.0
27.2 0.5222188194102131 0.0
28.0 0.5838423359014797 0.0
29.0 0.6745296306180961 0.0
30.0 0.8690904672587294 0.0
30.7 1.08063134158175 0.0
31.5 1.2431513426215446 0.0
32.5 1.5379995219252578 0.0
33.5 1.875987413553048 0.0
34.5 2.14420402941073 0.0
35.5 2.445670527653931 0.0
36.5 2.7558580880028956 0.0
37.5 2.923127043723639 0.0
38.7 3.039323519325137 0.0
40.0 2.9807507183765836 0.0
41.2 2.894668255457617 0.0
42.5 2.810690110474752 0.0
43.7 2.7558580912320565 0.0
45.0 2.7019376931138765 0.0
46.2 2.6489192963470316 0.0
47.5 2.6753163483619744 0.0
48.7 2.596793204757091 0.0
50.0 2.6753163557052204 0.0
51.5 2.755858095482182 0.0
53.0 2.894668278160964 0.0
54.5 3.0988545541340926 0.0
56.0 3.2519329154501406 0.0
58.0 3.4766560737260335 0.0
60.0 3.644786461364319 0.0
61.5 3.7839528249380407 0.0
63.0 3.9273269011552543 0.0
65.0 4.037652069569461 0.0
67.0 4.037652085061552 0.0
69.0 4.074963839221397 0.0
71.0 4.074963847858442 0.0
73.0 4.074963869580557 0.0
75.0 4.037652161737697 0.0
77.5 3.927327019326711 0.0
80.0 3.7487691922844846 0.0
82.5 3.7487695017088782 0.0
85.0 3.610645734301201 0.0
87.5 3.5431383856380876 0.0
90.0 3.476656540872824 0.0
92.5 3.378840361368063 0.0
95.0 3.3467388554471142 0.0
97.5 3.3467399555642316 0.0
100.0 3.411193487095005 0.0
103.0 3.4437992448592922 0.0
106.0 3.5097719402381813 0.0
109.0 3.543139604600384 0.0
112.0 3.5431405105894953 0.0
115.0 3.50977169889876 0.0
118.0 3.476661226119191 0.0
122.0 3.411196168334868 0.0
125.0 3.3788487310382322 0.0
128.0 3.3467466150754746 0.0
132.0 3.2833013037296865 0.0
136.0 3.189981773746382 0.0
140.0 3.2208439157704305 0.0
145.0 3.283309158160378 0.0
150.0 3.314923175161624 0.0
155.0 3.34678155775741 0.0
160.0 3.3788846697600405 0.0
165.0 3.4112346787668457 0.0
170.0 3.4112528957083725 0.0
175.0 3.3789394516272466 0.0
180.0 3.378955586838998 0.0
185.0 3.4113518379187724 0.0
190.0 3.379003472140681 0.0
195.0 3.2834741659419677 0.0
200.0 3.0990512171030673 0.0
206.0 3.283702411859821 0.0
212.0 3.3154158128685793 0.0
218.0 3.379312372198129 0.0
224.0 3.4446224205660627 0.0
230.0 3.4445944123248466 0.0
236.0 3.4121430375996056 0.0
240.0 3.316482977059792 0.0
250.0 3.0418161567606035 0.0
258.0 2.8708110186916116 0.0
265.0 2.873525813888932 0.0
272.0 2.768319957812963 0.0
280.0 2.613714154521304 0.0
290.0 2.5516528071472635 0.0
300.0 2.498768272073363 0.0
307.0 2.45868690861613 0.0
315.0 2.4745426828120856 0.0
325.0 2.46796223953055 0.0
335.0 2.3490121897202982 0.0
345.0 2.231864426594953 0.0
355.0 2.1608996513266447 0.0
365.0 2.240507198076017 0.0
375.0 2.2063451077190166 0.0
387.0 2.465450121988141 0.0
400.0 2.462066531427922 0.0
412.0 2.1817578487052316 0.0
425.0 2.210500567660972 0.0
437.0 2.263934075895463 0.0
450.0 2.79885097788636 0.0
462.0 2.429499125432656 0.0
475.0 2.2639195423437997 0.0
487.0 2.190895355505887 0.0
500.0 2.220198848437633 0.0
515.0 2.334551405660818 0.0
530.0 2.1351108801371197 0.0
545.0 1.7407640185148239 0.0
560.0 1.3578701687385006 0.0
580.0 2.1296325092201016 0.0
600.0 1.8364384454737603 0.0
615.0 1.8113834585800817 0.0
630.0 1.8582367359480259 0.0
650.0 2.225600124658115 0.0
670.0 2.3287935040928005 0.0
690.0 2.035832365594402 0.0
710.0 2.117092632833618 0.0
730.0 1.8530048378358543 0.0
750.0 1.96018145598309 0.0
775.0 2.0576204146235852 0.0
800.0 2.392642693373574 0.0
825.0 2.943182074806856 0.0
850.0 3.1799421659381863 0.0
875.0 2.77338836406156 0.0
900.0 2.969854458854371 0.0
925.0 2.38794754095467 0.0
950.0 2.008380786824489 0.0
975.0 1.7370889085485999 0.0
1000.0 1.5807222698183807 0.0
1030.0 1.2919749598572423 0.0
1060.0 1.700514537159222 0.0
1090.0 1.6827338134036864 0.0
1120.0 1.8867460408648355 0.0
1150.0 1.291472271671637 0.0
1180.0 0.6075090255283868 0.0
1220.0 0.7414751765374916 0.0
1250.0 0.5940793059981218 0.0
1280.0 0.48050344280960644 0.0
1320.0 0.864820282837897 0.0
1360.0 0.5556180234040085 0.0
1400.0 0.5138278199984541 0.0
1450.0 1.1350548283268722 0.0
1500.0 1.1597850837904673 0.0
1550.0 0.8186036341536749 0.0
1600.0 1.018549415262612 0.0
1650.0 1.007532954786413 0.0
1700.0 1.1107702877206407 0.0
1750.0 1.2912416926286028 0.0
1800.0 1.4985977525490455 0.0
1850.0 1.3766328185391217 0.0
1900.0 1.77263321301686 0.0
1950.0 1.630388277995948 0.0
2000.0 1.8287992265025679 0.0
2060.0 1.5632244868920395 0.0
2120.0 1.237069420887039 0.0
2180.0 0.9858449863532144 0.0
2240.0 1.0869997608658934 0.0
2300.0 0.8742741103144454 0.0
2360.0 0.41520849161913986 0.0
2400.0 0.5493898553052361 0.0
2500.0 0.2860985695053557 0.0
2580.0 0.8742740177916772 0.0
2650.0 1.1107662743153242 0.0
2720.0 0.8742740067295216 0.0
2800.0 1.0637108792475516 0.0
2900.0 1.1350194180156024 0.0
3000.0 1.1107662665247346 0.0
3070.0 1.1723300159671624 0.0
3150.0 0.9751701701684965 0.0
3250.0 0.8185825035915428 0.0
3350.0 0.3924987815506995 0.0
3450.0 0.56807851832815 0.0
3550.0 0.8007821439606033 0.0
3650.0 0.5372629882842404 0.0
3750.0 0.5617815771675083 0.0
3870.0 0.8007821365331012 0.0
4000.0 0.9234168617568912 0.0
4120.0 0.6785976304660011 0.0
4250.0 1.0637108723811792 0.0
4370.0 1.0869995653785054 0.0
4500.0 0.9437981920964091 0.0
4620.0 0.9751701636260037 0.0
4750.0 0.7171906108082453 0.0
4870.0 0.7093072145729877 0.0
5000.0 0.6209705124186513 0.0
5150.0 0.6564084637773959 0.0
5300.0 0.4645393238090776 0.0
5450.0 0.33518240905303287 0.0
5600.0 0.5555522282346601 0.0
5800.0 0.46453932379016294 0.0
6000.0 0.6637261273177586 0.0
6150.0 0.5253958304017914 0.0
6300.0 0.634918634214344 0.0
6500.0 0.7920210948339559 0.0
6700.0 0.5372629823515354 0.0
6900.0 0.6937892219847299 0.0
7100.0 0.5680785107129225 0.0
7300.0 0.9437981918802194 0.0
7500.0 0.8838994486776386 0.0
7750.0 0.9234168613723739 0.0
8000.0 0.855321204229611 0.0
8250.0 0.9751701635404544 0.0
8500.0 0.8838994486932137 0.0
8750.0 0.9335548429849752 0.0
9000.0 0.717190610746826 0.0
9250.0 0.555552228223462 0.0
9500.0 0.46977554443357405 0.0
9750.0 0.3586660087687932 0.0
10000.0 0.2893568195218279 0.0
10300.0 0.20584083798355834 0.0
10600.0 0.27342248832610494 0.0
10900.0 0.4014331603539887 0.0
11200.0 0.3314178786726387 0.0
11500.0 0.27653869878744786 0.0
11800.0 0.23862093563866438 0.0
12200.0 0.3203714601079355 0.0
12500.0 0.3627336329436872 0.0
12800.0 0.33141787867526773 0.0
13200.0 0.3924987747869011 0.0
13600.0 0.5617815743371466 0.0
14000.0 0.7920210948284705 0.0
14500.0 0.7578842111195883 0.0
15000.0 0.6711222582908505 0.0
15500.0 0.45935993718987334 0.0
16000.0 0.15838790339684294 0.0
16500.0 0.1413026702528839 0.0
17000.0 0.11769069704934054 0.0
17500.0 0.1349921610469096 0.0
18000.0 0.13969812933665082 0.0
18500.0 0.10617703533043255 0.0
19000.0 0.09254904552338417 0.0
19500.0 0.08159176610266172 0.0
