Freq[Hz]     dBSPL  Phase[Deg]
22.4 0.10796215416308996 0.0
23.0 0.12816379422615398 0.0
23.6 0.15038631168121697 0.0
24.0 0.21902130067095982 0.0
25.0 0.2686822765553387 0.0
25.8 0.40350299853714944 0.0
26.5 0.5460721996318654 0.0
27.2 0.6104129004501146 0.0
28.0 0.6745296210642096 0.0
29.0 0.878661682753318 0.0
30.0 1.1042674397203314 0.0
30.7 1.3686953108477127 0.0
31.5 1.6211202406736192 0.0
32.5 1.9551422693458989 0.0
33.5 2.421236826496923 0.0
34.5 2.7831595075202813 0.0
35.5 3.1593527220510254 0.0
36.5 3.610645436356691 0.0
37.5 3.855110273390494 0.0
38.7 3.9638342692298068 0.0
40.0 3.9638342430610294 0.0
41.2 3.8910856502753575 0.0
42.5 3.78395262012738 0.0
43.7 3.7487687396021983 0.0
45.0 3.610645191581696 0.0
46.2 3.644786055158278 0.0
47.5 3.679186234651553 0.0
48.7 3.67918613720704 0.0
50.0 3.7487682880487796 0.0
51.5 3.8193987628037007 0.0
53.0 4.037650956404747 0.0
54.5 4.226913941780154 0.0
56.0 4.5033528570330645 0.0
58.0 4.751106253346137 0.0
60.0 4.965280431125166 0.0
61.5 5.097177280861004 0.0
63.0 5.277020153259073 0.0
65.0 5.322693009540075 0.0
67.0 5.277017793964603 0.0
69.0 5.322690096784896 0.0
71.0 5.277014196227739 0.0
73.0 5.2316234008438585 0.0
75.0 5.141698956594055 0.0
77.5 5.00894529633932 0.0
80.0 4.878741060581007 0.0
82.5 4.79334638996977 0.0
85.0 4.7090740013571235 0.0
87.5 4.625920242149064 0.0
90.0 4.625906296684676 0.0
92.5 4.543863292859328 0.0
95.0 4.543842308801999 0.0
97.5 4.584691973106786 0.0
100.0 4.6258151554068405 0.0
103.0 4.667204318830045 0.0
106.0 4.667153279142525 0.0
109.0 4.708799626177793 0.0
112.0 4.708723271474895 0.0
115.0 4.666916437388906 0.0
118.0 4.625372102596458 0.0
122.0 4.543152362678612 0.0
125.0 4.502386300506188 0.0
128.0 4.502181389401713 0.0
132.0 4.501853855542933 0.0
136.0 4.501448175080057 0.0
140.0 4.541559581203458 0.0
145.0 4.6642848435508455 0.0
150.0 4.705046247837444 0.0
155.0 4.745839908160889 0.0
160.0 4.7443098669085515 0.0
165.0 4.742407284822079 0.0
170.0 4.740057822183559 0.0
175.0 4.695147302332586 0.0
180.0 4.649818831229894 0.0
185.0 4.60397308137361 0.0
190.0 4.516468638839072 0.0
195.0 4.309140164242933 0.0
200.0 3.810296406666666 0.0
206.0 4.134129903203274 0.0
212.0 4.237069755002679 0.0
218.0 4.220386127345051 0.0
224.0 4.121817961340668 0.0
230.0 3.8303705157543533 0.0
236.0 3.5456735225250497 0.0
240.0 4.046758706906189 0.0
250.0 3.86273965348812 0.0
258.0 3.3460539417464616 0.0
265.0 3.0264656652258566 0.0
272.0 2.7365299914777808 0.0
280.0 2.4508294122724976 0.0
290.0 2.1506443901832313 0.0
300.0 1.8497293464866829 0.0
307.0 1.6423979482209603 0.0
315.0 1.5025633598200017 0.0
325.0 0.8521323235518139 0.0
335.0 -0.029662803604836085 0.0
345.0 -0.6345027898937303 0.0
355.0 -1.0868594433537453 0.0
365.0 -0.9903963232874133 0.0
375.0 -1.1807391583394917 0.0
387.0 -1.361126099070006 0.0
400.0 -1.7764419102636282 0.0
412.0 -3.0898749172750826 0.0
425.0 -3.9890082028172458 0.0
437.0 -4.535324949197019 0.0
450.0 -3.7736950597495422 0.0
462.0 -5.014053960690916 0.0
475.0 -5.520384823671662 0.0
487.0 -5.824311137576444 0.0
500.0 -7.467528126259921 0.0
515.0 -6.922124719500204 0.0
530.0 -7.170308975975502 0.0
545.0 -7.027032716387893 0.0
560.0 -6.991144746037861 0.0
580.0 -7.564862440735638 0.0
600.0 -7.245972632891622 0.0
615.0 -6.363830855641567 0.0
630.0 -6.46058466814884 0.0
650.0 -5.935609534120573 0.0
670.0 -5.579723124333668 0.0
690.0 -5.717110930428646 0.0
710.0 -4.072853368227356 0.0
730.0 -4.581575766368047 0.0
750.0 -4.795113296835126 0.0
775.0 -4.621756879077793 0.0
800.0 -4.241820015741752 0.0
825.0 -3.3560048106936193 0.0
850.0 -3.4649979390883203 0.0
875.0 -3.5723821720181945 0.0
900.0 -2.9798168285050792 0.0
925.0 -3.5840231979655357 0.0
950.0 -3.687752760416089 0.0
975.0 -4.489789269057212 0.0
1000.0 -6.988422296720032 0.0
1030.0 -10.487236886266643 0.0
1060.0 -8.294037663589236 0.0
1090.0 -7.696382785673961 0.0
1120.0 -7.99752166443723 0.0
1150.0 -9.098427484316318 0.0
1180.0 -9.79952707105214 0.0
1220.0 -12.09890500295613 0.0
1250.0 -19.394882859082117 0.0
1280.0 -27.98684236336186 0.0
1320.0 -21.496824310733984 0.0
1360.0 -19.099550411205257 0.0
1400.0 -16.900703455956787 0.0
1450.0 -14.801427513802267 0.0
1500.0 -13.601746946303734 0.0
1550.0 -13.102016471152567 0.0
1600.0 -11.302238531564598 0.0
1650.0 -9.402331223895402 0.0
1700.0 -6.602401266521895 0.0
1750.0 -8.402396774647485 0.0
1800.0 -6.402447205350953 0.0
1850.0 -5.60247433523331 0.0
1900.0 -6.402482652775376 0.0
1950.0 -7.102494685683041 0.0
2000.0 -6.702503484970094 0.0
2060.0 -6.102512503834248 0.0
2120.0 -7.9025143856384545 0.0
2180.0 -8.702516704010819 0.0
2240.0 -11.102514444631964 0.0
2300.0 -11.10251808007635 0.0
2360.0 -15.102515012390171 0.0
2400.0 -18.202511199731845 0.0
2500.0 -20.602513004054046 0.0
2580.0 -14.902523745596099 0.0
2650.0 -11.702527219452321 0.0
2720.0 -10.202528650405455 0.0
2800.0 -9.002529630544132 0.0
2900.0 -7.6025303838844 0.0
3000.0 -7.802530634724974 0.0
3070.0 -6.1025309663461655 0.0
3150.0 -9.502530859846843 0.0
3250.0 -12.002530821486744 0.0
3350.0 -14.302530781088592 0.0
3450.0 -16.802530683743214 0.0
3550.0 -19.1025306304318 0.0
3650.0 -16.502531060810256 0.0
3750.0 -16.802531177804354 0.0
3870.0 -14.502531388609043 0.0
4000.0 -13.602531463418032 0.0
4120.0 -14.00253150192539 0.0
4250.0 -11.10253156801727 0.0
4370.0 -12.902531568939523 0.0
4500.0 -12.702531586847314 0.0
4620.0 -10.402531610546106 0.0
4750.0 -13.302531607393206 0.0
4870.0 -13.80253161277227 0.0
5000.0 -16.30253161040605 0.0
5150.0 -17.70253161369594 0.0
5300.0 -20.202531612530663 0.0
5450.0 -18.302531624715158 0.0
5600.0 -20.30253162490328 0.0
5800.0 -18.202531633700133 0.0
6000.0 -17.302531637568308 0.0
6150.0 -15.902531640096242 0.0
6300.0 -15.702531641251795 0.0
6500.0 -16.602531641957313 0.0
6700.0 -18.102531642295716 0.0
6900.0 -21.00253164194548 0.0
7100.0 -19.702531643169664 0.0
7300.0 -17.502531644123962 0.0
7500.0 -14.402531644819888 0.0
7750.0 -15.202531644952245 0.0
8000.0 -14.50253164513461 0.0
8250.0 -11.902531645293877 0.0
8500.0 -11.702531645325536 0.0
8750.0 -11.002531645421442 0.0
9000.0 -12.70253164545052 0.0
9250.0 -14.602531645422872 0.0
9500.0 -15.502531645361415 0.0
9750.0 -17.50253164525074 0.0
10000.0 -17.502531645209274 0.0
10300.0 -18.702531645058244 0.0
10600.0 -19.802531645055865 0.0
10900.0 -19.50253164519833 0.0
11200.0 -21.202531645386216 0.0
11500.0 -19.40253164532008 0.0
11800.0 -22.10253164506412 0.0
12200.0 -20.202531645148838 0.0
12500.0 -20.60253164537275 0.0
12800.0 -21.10253164537626 0.0
13200.0 -20.20253164536922 0.0
13600.0 -18.002531645508554 0.0
14000.0 -15.602531645518738 0.0
14500.0 -16.002531645537545 0.0
15000.0 -15.50253164553807 0.0
15500.0 -17.90253164551686 0.0
16000.0 -28.502531645299484 0.0
16500.0 -27.402531645364803 0.0
17000.0 -27.302531645437426 0.0
17500.0 -28.802531645407015 0.0
18000.0 -30.502531645352803 0.0
18500.0 -32.20253164542305 0.0
19000.0 -33.60253164543121 0.0
19500.0 -34.40253164545186 0.0
