Freq[Hz]     dBSPL  Phase[Deg]
22.4 0.16104272451531187 0.0
23.0 0.09197546292809022 0.0
23.6 0.13112669241772323 0.0
24.0 0.23182743048710108 0.0
25.0 0.281142101878217 0.0
25.8 0.4721882914796822 0.0
26.5 0.5400116930157708 0.0
27.2 0.5903782444427748 0.0
28.0 0.7369196910733677 0.0
29.0 0.8137139243828244 0.0
30.0 1.1042674556998264 0.0
30.7 1.3398227538459508 0.0
31.5 1.5707697294568845 0.0
32.5 1.995826336334659 0.0
33.5 2.421236859657526 0.0
34.5 2.7831595473089834 0.0
35.5 3.128982203189935 0.0
36.5 3.5097691977760945 0.0
37.5 3.7487689760008323 0.0
38.7 3.8910857963416987 0.0
40.0 3.8551103429871603 0.0
41.2 3.783952809564397 0.0
42.5 3.679186701866982 0.0
43.7 3.6106454949761115 0.0
45.0 3.509769200591734 0.0
46.2 3.509769200180685 0.0
47.5 3.509769202010787 0.0
48.7 3.476656046457663 0.0
50.0 3.5767629564477375 0.0
51.5 3.644786436295675 0.0
53.0 3.7839528182736046 0.0
54.5 4.000609148838308 0.0
56.0 4.2655829958607825 0.0
58.0 4.463036221162099 0.0
60.0 4.6674066173302435 0.0
61.5 4.835932719658516 0.0
63.0 4.9652830416186475 0.0
65.0 5.052930942347729 0.0
67.0 5.052930954173718 0.0
69.0 5.052930993286708 0.0
71.0 5.008965329289552 0.0
73.0 4.9652831272968 0.0
75.0 4.878767255861064 0.0
77.5 4.751108382184469 0.0
80.0 4.625975631351963 0.0
82.5 4.584823742543719 0.0
85.0 4.463036547349759 0.0
87.5 4.383229702188885 0.0
90.0 4.343739838387762 0.0
92.5 4.304524613697097 0.0
95.0 4.304524710030762 0.0
97.5 4.3437400303860585 0.0
100.0 4.383230255538294 0.0
103.0 4.4229959565323185 0.0
106.0 4.463038134063524 0.0
109.0 4.503356628199597 0.0
112.0 4.503357263952751 0.0
115.0 4.463039596783602 0.0
118.0 4.422999409487986 0.0
122.0 4.422999983555883 0.0
125.0 4.383235449766289 0.0
128.0 4.383238400701373 0.0
132.0 4.3832385061919865 0.0
136.0 4.343751944587723 0.0
140.0 4.423009754762319 0.0
145.0 4.543969097803128 0.0
150.0 4.626001331711237 0.0
155.0 4.709144145440632 0.0
160.0 4.7511418469508016 0.0
165.0 4.7511495802619095 0.0
170.0 4.751166625116454 0.0
175.0 4.751188825035058 0.0
180.0 4.751197620332462 0.0
185.0 4.7092278056106665 0.0
190.0 4.709262961902695 0.0
195.0 4.584993077049916 0.0
200.0 4.503550991662038 0.0
206.0 4.5035934865491924 0.0
212.0 4.503676909433366 0.0
218.0 4.585216510597192 0.0
224.0 4.5853722942867705 0.0
230.0 4.504164450114928 0.0
236.0 4.344931846245842 0.0
240.0 4.385268563109705 0.0
250.0 4.078053084205152 0.0
258.0 4.006545340354478 0.0
265.0 3.9370337107373246 0.0
272.0 3.765018586519375 0.0
280.0 3.6677412749311884 0.0
290.0 3.622862487928927 0.0
300.0 3.628134952932683 0.0
307.0 3.6903169460730822 0.0
315.0 3.742772015001947 0.0
325.0 3.7849441532376886 0.0
335.0 3.7999093884826607 0.0
345.0 3.748105539796626 0.0
355.0 3.8645468341845515 0.0
365.0 3.8363055966037507 0.0
375.0 3.8747262479071765 0.0
387.0 4.394108533764097 0.0
400.0 3.815622506695405 0.0
412.0 3.699341878343688 0.0
425.0 3.641805936967188 0.0
437.0 3.3728198978464405 0.0
450.0 2.974450355130088 0.0
462.0 2.6544051565154234 0.0
475.0 2.63171034855597 0.0
487.0 3.197730289816164 0.0
500.0 3.11858362685399 0.0
515.0 3.1324400848181426 0.0
530.0 3.0423435346924066 0.0
545.0 3.0030548723832453 0.0
560.0 3.067323399047865 0.0
580.0 3.0865291765286997 0.0
600.0 3.00269454781602 0.0
615.0 3.3333000414846197 0.0
630.0 3.410866265972601 0.0
650.0 3.1838465427129847 0.0
670.0 3.602447946048528 0.0
690.0 3.8282411595674404 0.0
710.0 4.259362631676723 0.0
730.0 4.523416211972773 0.0
750.0 4.157254513414813 0.0
775.0 4.463244596536413 0.0
800.0 4.578473949254018 0.0
825.0 4.699161448053559 0.0
850.0 4.493046090408626 0.0
875.0 4.139430401748456 0.0
900.0 3.0906150405811843 0.0
925.0 2.8577695695304044 0.0
950.0 2.6139470599038503 0.0
975.0 2.536525620717285 0.0
1000.0 2.6128977723470115 0.0
1030.0 2.4604961847489335 0.0
1060.0 2.8265823454958507 0.0
1090.0 2.5857388444412095 0.0
1120.0 3.026413447557559 0.0
1150.0 2.7170272741040833 0.0
1180.0 2.585426500272078 0.0
1220.0 1.5801262878478184 0.0
1250.0 1.6306955192085582 0.0
1280.0 1.848112401363423 0.0
1320.0 1.6477984166557178 0.0
1360.0 1.4673681420416642 0.0
1400.0 1.0523822658028195 0.0
1450.0 0.757983769237697 0.0
1500.0 0.7921105015298053 0.0
1550.0 1.5145850964320857 0.0
1600.0 1.406274101524204 0.0
1650.0 1.451763081805396 0.0
1700.0 2.3621083162933587 0.0
1750.0 2.7980811209309167 0.0
1800.0 3.206694308534921 0.0
1850.0 3.055392469031304 0.0
1900.0 2.4101418977044062 0.0
1950.0 2.0910481544679413 0.0
2000.0 1.5145214176765052 0.0
2060.0 1.1228333330272733 0.0
2120.0 0.9234177023806751 0.0
2180.0 2.091045714085382 0.0
2240.0 1.514519539537801 0.0
2300.0 1.7001633325644434 0.0
2360.0 1.7001631782911204 0.0
2400.0 2.134224855713768 0.0
2500.0 2.5850032541156764 0.0
2580.0 2.636926747266969 0.0
2650.0 2.5850032145502837 0.0
2720.0 2.2685130857350657 0.0
2800.0 2.006998567967969 0.0
2900.0 1.530597605025747 0.0
3000.0 1.1597676170609361 0.0
3070.0 1.647582874478175 0.0
3150.0 1.5305975965624157 0.0
3250.0 1.1723300194552024 0.0
3350.0 0.6711222731597957 0.0
3450.0 1.1723300335494713 0.0
3550.0 1.052243192162308 0.0
3650.0 1.596483685031771 0.0
3750.0 2.0697460768000155 0.0
3870.0 1.6649433631205284 0.0
4000.0 1.5632238313083917 0.0
4120.0 1.1228314939338304 0.0
4250.0 0.883899449589606 0.0
4370.0 0.5555522291021333 0.0
4500.0 0.7833516470645066 0.0
4620.0 0.9966295800978031 0.0
4750.0 1.086999565304879 0.0
4870.0 1.1597675860644898 0.0
5000.0 1.2238607469955696 0.0
5150.0 1.2370692172465425 0.0
5300.0 1.5305975752913383 0.0
5450.0 1.7542577520258646 0.0
5600.0 2.0069985294717867 0.0
5800.0 1.9864614248170085 0.0
6000.0 1.886559127336639 0.0
6150.0 2.1342247271203263 0.0
6300.0 2.0697460688260207 0.0
6500.0 2.0277241549487997 0.0
6700.0 2.6897402433777984 0.0
6900.0 2.2229486147593036 0.0
7100.0 2.2685130475051096 0.0
7300.0 2.027724154948416 0.0
7500.0 1.5145189896872324 0.0
7750.0 1.754257751997912 0.0
8000.0 2.268513047497777 0.0
8250.0 2.88173670014217 0.0
8500.0 2.825731862696557 0.0
8750.0 2.362097653575276 0.0
9000.0 1.736055802799413 0.0
9250.0 1.6649433607693425 0.0
9500.0 1.2107837004247415 0.0
9750.0 1.362045777949632 0.0
10000.0 1.5797739365689125 0.0
10300.0 1.9259684930224097 0.0
10600.0 2.1342247271441437 0.0
10900.0 1.5145189897132525 0.0
11200.0 1.3766308590661538 0.0
11500.0 1.1850194346926628 0.0
11800.0 0.9034531555888634 0.0
12200.0 1.1850194347057084 0.0
12500.0 0.8838994486892346 0.0
12800.0 1.3191429322076829 0.0
13200.0 1.4672068514702374 0.0
13600.0 1.9459476801882971 0.0
14000.0 2.0910449079319307 0.0
14500.0 1.7001630119671773 0.0
15000.0 1.514518989687943 0.0
15500.0 1.0637108721281976 0.0
16000.0 0.4858311255880352 0.0
16500.0 0.5873817264061358 0.0
17000.0 0.4342952751838425 0.0
17500.0 0.39694140131817335 0.0
18000.0 0.3276948361556862 0.0
18500.0 0.252556478794844 0.0
19000.0 0.14790567432874013 0.0
19500.0 0.15838790338925435 0.0
