Freq[Hz]     dBSPL  Phase[Deg]
22.4 0.161042724506558 0.0
23.0 0.0919754629161531 0.0
23.6 0.1311266924403185 0.0
24.0 0.2318274304664527 0.0
25.0 0.2811421018566307 0.0
25.8 0.4721882914517721 0.0
26.5 0.5400116929750709 0.0
27.2 0.5903782444267591 0.0
28.0 0.7369196910847506 0.0
29.0 0.8137139242931823 0.0
30.0 1.1042674556267116 0.0
30.7 1.3398227537085745 0.0
31.5 1.5707697295841854 0.0
32.5 1.9958263362546518 0.0
33.5 2.4212368595424607 0.0
34.5 2.7831595476264397 0.0
35.5 3.128982203751619 0.0
36.5 3.5097691983354906 0.0
37.5 3.748768975947044 0.0
38.7 3.891085795954865 0.0
40.0 3.8551103429871603 0.0
41.2 3.7839528092155774 0.0
42.5 3.679186701356656 0.0
43.7 3.610645494725162 0.0
45.0 3.5097692018544393 0.0
46.2 3.5097692004483747 0.0
47.5 3.5097691993703677 0.0
48.7 3.4766560477026474 0.0
50.0 3.576762960634966 0.0
51.5 3.644786432186322 0.0
53.0 3.783952835998207 0.0
54.5 4.0006091430688855 0.0
56.0 4.2655830021587064 0.0
58.0 4.4630362358205105 0.0
60.0 4.667406619783506 0.0
61.5 4.835932707187595 0.0
63.0 4.965283057196231 0.0
65.0 5.052930955729224 0.0
67.0 5.0529309607314445 0.0
69.0 5.052930954173732 0.0
71.0 5.008965295067313 0.0
73.0 4.965283104197539 0.0
75.0 4.878767300444835 0.0
77.5 4.751108445469114 0.0
80.0 4.625975719028418 0.0
82.5 4.584824019461337 0.0
85.0 4.463036499644062 0.0
87.5 4.383229595699703 0.0
90.0 4.343739715874733 0.0
92.5 4.304524894168594 0.0
95.0 4.3045247030781155 0.0
97.5 4.343740477232686 0.0
100.0 4.383230638032785 0.0
103.0 4.422996262617801 0.0
106.0 4.4630393703405105 0.0
109.0 4.5033557516188125 0.0
112.0 4.503356813305871 0.0
115.0 4.463038201884558 0.0
118.0 4.422998995519819 0.0
122.0 4.422997922367074 0.0
125.0 4.383238400701373 0.0
128.0 4.383237599106366 0.0
132.0 4.383239750403831 0.0
136.0 4.343751657029742 0.0
140.0 4.423012184567753 0.0
145.0 4.543971185231982 0.0
150.0 4.626006203674692 0.0
155.0 4.709154341980124 0.0
160.0 4.751147720684102 0.0
165.0 4.751151527478484 0.0
170.0 4.7511573686312545 0.0
175.0 4.751196597473012 0.0
180.0 4.751208523510172 0.0
185.0 4.70923037868036 0.0
190.0 4.70925014880693 0.0
195.0 4.584979944784436 0.0
200.0 4.5035160503976925 0.0
206.0 4.5037080217447 0.0
212.0 4.503746624990697 0.0
218.0 4.585312611908449 0.0
224.0 4.585538672539599 0.0
230.0 4.504222379823119 0.0
236.0 4.344839515850495 0.0
240.0 4.385005449600868 0.0
250.0 4.078470091071793 0.0
258.0 4.006896955299595 0.0
265.0 3.9377275230147006 0.0
272.0 3.765783657498588 0.0
280.0 3.669380667500974 0.0
290.0 3.6255863942011786 0.0
300.0 3.6243272748372135 0.0
307.0 3.668564940686153 0.0
315.0 3.699633799502081 0.0
325.0 3.7067678612696113 0.0
335.0 3.6689354059021895 0.0
345.0 3.5582734912969727 0.0
355.0 3.592531779344995 0.0
365.0 3.824668317888168 0.0
375.0 3.8079942229292243 0.0
387.0 4.257488056303998 0.0
400.0 4.32333226408241 0.0
412.0 3.870172348100482 0.0
425.0 3.804715841616769 0.0
437.0 3.742650798075232 0.0
450.0 4.161909855156097 0.0
462.0 3.7841220869376144 0.0
475.0 3.7176517699672473 0.0
487.0 3.622321269880885 0.0
500.0 3.11858362685399 0.0
515.0 3.283003509467889 0.0
530.0 3.192736865055366 0.0
545.0 3.2326198756941693 0.0
560.0 3.2784110615493773 0.0
580.0 3.112976881828189 0.0
600.0 3.140045086750618 0.0
615.0 3.3946357955913555 0.0
630.0 3.379777069244497 0.0
650.0 3.5561246320935567 0.0
670.0 3.6691473660730196 0.0
690.0 3.6232124927563945 0.0
710.0 4.2213122869246575 0.0
730.0 4.024574698050557 0.0
750.0 3.9355476344642 0.0
775.0 4.003321619731764 0.0
800.0 4.146061639051084 0.0
825.0 4.49425391305806 0.0
850.0 4.452892260892952 0.0
875.0 4.410956527270642 0.0
900.0 4.652986803576553 0.0
925.0 4.40825487996625 0.0
950.0 4.367670195085353 0.0
975.0 4.060026764583057 0.0
1000.0 3.208597571641434 0.0
1030.0 2.270017956086221 0.0
1060.0 2.8265823454958507 0.0
1090.0 2.997256719581401 0.0
1120.0 2.9106579070872556 0.0
1150.0 2.611404317735577 0.0
1180.0 2.434905436488691 0.0
1220.0 1.9263070770409456 0.0
1250.0 0.8842357820889504 0.0
1280.0 0.33927332845865976 0.0
1320.0 0.7017473962763461 0.0
1360.0 0.9135551938783806 0.0
1400.0 1.1599049843158014 0.0
1450.0 1.4518319083467048 0.0
1500.0 1.6476638663837804 0.0
1550.0 1.7361202447939093 0.0
1600.0 2.091081756461051 0.0
1650.0 2.5339802722262874 0.0
1700.0 3.332156685196253 0.0
1750.0 2.7980811209309167 0.0
1800.0 3.396376090933529 0.0
1850.0 3.6634339495354595 0.0
1900.0 3.3963748379331378 0.0
1950.0 3.175944881164199 0.0
2000.0 3.3004124356157547 0.0
2060.0 3.494601785029161 0.0
2120.0 2.93867533260223 0.0
2180.0 2.7164846042540916 0.0
2240.0 2.1342252390982708 0.0
2300.0 2.1342250320810194 0.0
2360.0 1.4062344022500213 0.0
2400.0 1.0075258468815775 0.0
2500.0 0.7747730659980903 0.0
2580.0 1.4364231698954484 0.0
2650.0 2.00699861179595 0.0
2720.0 2.3383914089820337 0.0
2800.0 2.6369266920691246 0.0
2900.0 3.025851562642316 0.0
3000.0 2.9674965068068673 0.0
3070.0 3.494600407368779 0.0
3150.0 2.5087653041023827 0.0
3250.0 1.9459476917616882 0.0
3350.0 1.5305975886825252 0.0
3450.0 1.1723300335494713 0.0
3550.0 0.9133833211091087 0.0
3650.0 1.2107837246968955 0.0
3750.0 1.1723300156558594 0.0
3870.0 1.4985951485385982 0.0
4000.0 1.6475828481579669 0.0
4120.0 1.5797739374526145 0.0
4250.0 2.1342247279004596 0.0
4370.0 1.7726317437056451 0.0
4500.0 1.8099008826598464 0.0
4620.0 2.291600332246574 0.0
4750.0 1.700163012106401 0.0
4870.0 1.6133542336349365 0.0
5000.0 1.237069217335062 0.0
5150.0 1.063710872244883 0.0
5300.0 0.8096356433624976 0.0
5450.0 0.9966295797889018 0.0
5600.0 0.8007821359289693 0.0
5800.0 1.0075257004829155 0.0
6000.0 1.1107662565303968 0.0
6150.0 1.2912397809796516 0.0
6300.0 1.3191429322100987 0.0
6500.0 1.1978369653994037 0.0
6700.0 1.0185341027663384 0.0
6900.0 0.741348147575593 0.0
7100.0 0.855321204238237 0.0
7300.0 1.0869995651632536 0.0
7500.0 1.5145189896872324 0.0
7750.0 1.3913599517065052 0.0
8000.0 1.4985951461398201 0.0
8250.0 1.966111566386246 0.0
8500.0 2.0069985294705646 0.0
8750.0 2.156108257018019 0.0
9000.0 1.8099008818495577 0.0
9250.0 1.4828248351746964 0.0
9500.0 1.3476035387551804 0.0
9750.0 1.0869995651788287 0.0
10000.0 1.0869995651856073 0.0
10300.0 0.954147877078924 0.0
10600.0 0.8459920351821637 0.0
10900.0 0.8742739894926075 0.0
11200.0 0.7251580192672549 0.0
11500.0 0.8838994486955869 0.0
11800.0 0.6564084637770122 0.0
12200.0 0.8096356433098322 0.0
12500.0 0.7747729223871147 0.0
12800.0 0.733210257101689 0.0
13200.0 0.8096356432913154 0.0
13600.0 1.0296557992510458 0.0
14000.0 1.3333029767738083 0.0
14500.0 1.27749437988426 0.0
15000.0 1.3476035387415521 0.0
15500.0 1.0408918086997545 0.0
16000.0 0.32037146007934325 0.0
16500.0 0.3627336329352602 0.0
17000.0 0.3668464208105746 0.0
17500.0 0.30968669992660125 0.0
18000.0 0.25543835913099144 0.0
18500.0 0.2105778286716884 0.0
19000.0 0.17955238672880114 0.0
19500.0 0.16390180495696427 0.0
