Freq[Hz]     dBSPL  Phase[Deg]
2.0507813e+01 6.3318032e+01 -5.9408653e+01 
2.1972656e+01 6.5155039e+01 -6.1523054e+01 
2.3437500e+01 6.6620252e+01 -6.2396652e+01 
2.4902344e+01 6.7574843e+01 -6.6500014e+01 
2.6367188e+01 6.9260424e+01 -7.3734338e+01 
2.7832031e+01 7.0017861e+01 -7.7548859e+01 
2.9296875e+01 7.1000357e+01 -8.3159779e+01 
3.0761719e+01 7.1979311e+01 -8.8349289e+01 
3.2226563e+01 7.2946296e+01 -9.3296527e+01 
3.3691406e+01 7.3948310e+01 -9.9121786e+01 
3.5156250e+01 7.4896783e+01 -1.0522723e+02 
3.6621094e+01 7.5786069e+01 -1.1121063e+02 
3.8085938e+01 7.6690103e+01 -1.1763743e+02 
3.9550781e+01 7.7524326e+01 -1.2377606e+02 
4.1015625e+01 7.8406688e+01 -1.3088436e+02 
4.2480469e+01 7.9208366e+01 -1.3811662e+02 
4.3945313e+01 7.9950094e+01 -1.4535423e+02 
4.5410156e+01 8.0643741e+01 -1.5293686e+02 
4.6875000e+01 8.1280926e+01 -1.6040591e+02 
4.8339844e+01 8.1865561e+01 -1.6836532e+02 
5.1269531e+01 8.2741698e+01 1.7500376e+02 
5.2734375e+01 8.3048357e+01 1.6689066e+02 
5.4199219e+01 8.3261493e+01 1.5914714e+02 
5.5664063e+01 8.3397617e+01 1.5174769e+02 
5.8593750e+01 8.3470713e+01 1.3806721e+02 
6.0058594e+01 8.3426083e+01 1.3157851e+02 
6.2988281e+01 8.3251964e+01 1.1991001e+02 
6.4453125e+01 8.3167413e+01 1.1502955e+02 
6.7382813e+01 8.3102511e+01 1.0634826e+02 
6.8847656e+01 8.3052385e+01 1.0219520e+02 
7.1777344e+01 8.2885644e+01 9.3652684e+01 
7.4707031e+01 8.2758786e+01 8.5784303e+01 
7.7636719e+01 8.2656041e+01 7.9266886e+01 
7.9101563e+01 8.2559225e+01 7.6271004e+01 
8.2031250e+01 8.2369995e+01 6.9997642e+01 
8.4960938e+01 8.2267183e+01 6.4094355e+01 
8.7890625e+01 8.2119352e+01 5.9342128e+01 
9.0820313e+01 8.1964901e+01 5.4845629e+01 
9.5214844e+01 8.1886243e+01 4.8291093e+01 
9.8144531e+01 8.1827252e+01 4.4524315e+01 
1.0107422e+02 8.1768186e+01 4.0614339e+01 
1.0546875e+02 8.1727053e+01 3.4584670e+01 
1.0839844e+02 8.1625485e+01 3.1107969e+01 
1.1279297e+02 8.1576410e+01 2.6500970e+01 
1.1718750e+02 8.1506299e+01 2.1277440e+01 
1.2011719e+02 8.1441056e+01 1.8337692e+01 
1.2451172e+02 8.1377424e+01 1.3270819e+01 
1.2890625e+02 8.1091028e+01 9.0104496e+00 
1.3330078e+02 8.0931986e+01 6.3675342e+00 
1.3916016e+02 8.0967358e+01 1.9839458e+00 
1.4355469e+02 8.0926579e+01 -2.0624860e+00 
1.4794922e+02 8.0773443e+01 -5.7668799e+00 
1.5380859e+02 8.0540602e+01 -9.2394204e+00 
1.5966797e+02 8.0646371e+01 -1.3217906e+01 
1.6552734e+02 8.0386509e+01 -1.7601988e+01 
1.7138672e+02 8.0477556e+01 -2.0531459e+01 
1.7724609e+02 8.0318040e+01 -2.6087163e+01 
1.8310547e+02 7.9942286e+01 -2.9039798e+01 
1.8896484e+02 7.9919294e+01 -3.0448549e+01 
1.9628906e+02 8.0212740e+01 -3.5014501e+01 
2.0361328e+02 7.9952957e+01 -4.1642781e+01 
2.1093750e+02 7.9643815e+01 -4.5485960e+01 
2.1826172e+02 7.9451630e+01 -4.8237530e+01 
2.2558594e+02 7.9041454e+01 -5.2682828e+01 
2.3291016e+02 7.9251899e+01 -5.1799889e+01 
2.4169922e+02 7.9264155e+01 -6.0506152e+01 
2.5048828e+02 7.8651974e+01 -6.3191351e+01 
2.5927734e+02 7.8572432e+01 -6.4892852e+01 
2.6806641e+02 7.8877664e+01 -6.9013873e+01 
2.7685547e+02 7.8351159e+01 -7.5275757e+01 
2.8710938e+02 7.7632378e+01 -7.5198654e+01 
2.9736328e+02 7.8171468e+01 -7.7155758e+01 
3.0761719e+02 7.7390243e+01 -8.2355224e+01 
3.1933594e+02 7.7497009e+01 -8.1357002e+01 
3.2958984e+02 7.7453123e+01 -8.2206769e+01 
3.4130859e+02 7.8159250e+01 -8.4677552e+01 
3.5302734e+02 7.8774021e+01 -9.4028991e+01 
3.6621094e+02 7.8492698e+01 -1.0777643e+02 
3.7939453e+02 7.6890270e+01 -1.1503682e+02 
3.9257813e+02 7.6285131e+01 -1.1652294e+02 
4.0576172e+02 7.6557451e+01 -1.1913874e+02 
4.2041016e+02 7.7263492e+01 -1.2824333e+02 
4.3505859e+02 7.5828098e+01 -1.3807384e+02 
4.5117188e+02 7.6057788e+01 -1.4282193e+02 
4.6582031e+02 7.4280370e+01 -1.5033860e+02 
4.8339844e+02 7.4159438e+01 -1.4532407e+02 
4.9951172e+02 7.3798351e+01 -1.4243645e+02 
5.1708984e+02 7.4641144e+01 -1.4639151e+02 
5.3613281e+02 7.4907788e+01 -1.5191739e+02 
5.5517578e+02 7.5211848e+01 -1.6246232e+02 
5.7421875e+02 7.4149668e+01 -1.6875859e+02 
5.9472656e+02 7.4293106e+01 -1.7770230e+02 
6.1523438e+02 7.3311465e+01 -1.7947015e+02 
6.3720703e+02 7.4447201e+01 1.7238063e+02 
6.5917969e+02 7.3264588e+01 1.6011061e+02 
6.8261719e+02 7.2388957e+01 1.5531788e+02 
7.0751953e+02 7.1424053e+01 1.5973800e+02 
7.3242188e+02 7.2394537e+01 1.4729524e+02 
7.5732422e+02 7.0963387e+01 1.4861154e+02 
7.8515625e+02 7.2455615e+01 1.3987881e+02 
8.1152344e+02 7.1739750e+01 1.3357573e+02 
8.4082031e+02 7.1317005e+01 1.2691267e+02 
8.7011719e+02 7.1959045e+01 1.2082796e+02 
9.0087891e+02 7.1924770e+01 1.0965395e+02 
9.3310547e+02 6.9990761e+01 1.0214104e+02 
9.6533203e+02 7.1011984e+01 1.0781059e+02 
1.0004883e+03 7.2282814e+01 8.8131229e+01 
1.0356445e+03 7.0819428e+01 7.6166892e+01 
1.0722656e+03 6.9109207e+01 5.5853811e+01 
1.1088867e+03 6.7444934e+01 7.6236543e+01 
1.1484375e+03 7.0799829e+01 6.7361299e+01 
1.1894531e+03 7.0227005e+01 5.9471995e+01 
1.2304688e+03 7.1537697e+01 3.8546233e+01 
1.2744141e+03 7.0259074e+01 1.5071163e+01 
1.3198242e+03 6.8799464e+01 9.8854464e+00 
1.3666992e+03 6.8737937e+01 -2.0130619e+01 
1.4135742e+03 6.3347030e+01 -4.8073857e+01 
1.4633789e+03 5.8449441e+01 4.3470676e+01 
1.5161133e+03 6.7398450e+01 4.4023831e+00 
1.5688477e+03 6.7958694e+01 -3.2205340e+01 
1.6245117e+03 6.9344680e+01 -6.3730292e+01 
1.6816406e+03 6.5865530e+01 -1.2720131e+02 
1.7416992e+03 5.8907930e+01 -1.6775264e+02 
1.8032227e+03 5.5511877e+01 1.0426033e+02 
1.8662109e+03 5.9608460e+01 -5.6282401e+01 
1.9321289e+03 6.6049606e+01 -1.4329761e+02 
1.9995117e+03 6.7551004e+01 1.6471049e+02 
2.0698242e+03 6.7812261e+01 1.0473009e+02 
2.1430664e+03 6.5559071e+01 9.0561294e+01 
2.2192383e+03 6.3356172e+01 7.9590978e+01 
2.2968750e+03 6.9237029e+01 8.9577907e+01 
2.3789063e+03 6.9675226e+01 4.4222147e+01 
2.4624023e+03 6.7657254e+01 4.0066561e+01 
2.5488281e+03 7.0209103e+01 2.4076922e+01 
2.6396484e+03 6.4253775e+01 1.9534902e+01 
2.7319336e+03 7.0926231e+01 -1.3372874e+00 
2.8286133e+03 6.4671288e+01 -2.2992849e+01 
2.9282227e+03 6.7478363e+01 -1.7162833e+01 
3.0307617e+03 6.6573981e+01 -4.9213140e+01 
3.1376953e+03 6.4419369e+01 -3.8652761e+01 
3.2490234e+03 6.3643321e+01 -7.9651887e+01 
3.3632813e+03 5.7143381e+01 -1.1780092e+01 
3.4819336e+03 5.3958372e+01 -1.9190360e+01 
3.6049805e+03 6.4416484e+01 -1.4070169e+01 
3.7324219e+03 6.4032555e+01 -6.2284567e+00 
3.8642578e+03 6.4476456e+01 -4.3825692e+01 
4.0004883e+03 6.4764742e+01 -4.2079411e+01 
4.1411133e+03 6.2558570e+01 -4.4939069e+01 
4.2875977e+03 6.4704628e+01 -5.6212931e+01 
4.4384766e+03 6.4490104e+01 -6.4028116e+01 
4.5952148e+03 6.3789208e+01 -7.3785429e+01 
4.7563477e+03 6.3107563e+01 -8.3823602e+01 
4.9248047e+03 6.1658055e+01 -9.8694169e+01 
5.0976563e+03 6.0113967e+01 -9.2290367e+01 
5.2778320e+03 6.1965283e+01 -9.2386402e+01 
5.4638672e+03 6.1719494e+01 -1.0057010e+02 
5.6572266e+03 6.0723095e+01 -1.1530084e+02 
5.8564453e+03 6.0962619e+01 -1.1972302e+02 
6.0629883e+03 5.9828647e+01 -1.2310743e+02 
6.2768555e+03 5.9592995e+01 -1.4205180e+02 
6.4980469e+03 5.6840931e+01 -1.4062663e+02 
6.7265625e+03 5.8489390e+01 -1.2974050e+02 
6.9638672e+03 5.7978665e+01 -1.4644494e+02 
7.2099609e+03 5.8582780e+01 -1.5835708e+02 
7.4648438e+03 5.7213906e+01 -1.5804052e+02 
7.7270508e+03 5.6192753e+01 -1.7099529e+02 
7.9995117e+03 5.5885191e+01 -1.7841736e+02 
8.2822266e+03 5.5287316e+01 -1.7177417e+02 
8.5737305e+03 5.5902296e+01 1.7365935e+02 
8.8769531e+03 5.4386794e+01 1.6336009e+02 
9.1889648e+03 5.4166335e+01 1.6168464e+02 
9.5141602e+03 5.3679491e+01 1.4763547e+02 
9.8496094e+03 5.2295987e+01 1.4006286e+02 
1.0196777e+04 5.1022247e+01 1.3352160e+02 
1.0555664e+04 4.9035538e+01 1.2692643e+02 
1.0927734e+04 4.7348093e+01 1.3059272e+02 
1.1312988e+04 4.6092440e+01 1.3752860e+02 
1.1712891e+04 4.5865594e+01 1.5158518e+02 
1.2125977e+04 4.8345767e+01 1.5412712e+02 
1.2553711e+04 5.0206670e+01 1.4085056e+02 
1.2996094e+04 5.0464398e+01 1.1827450e+02 
1.3454590e+04 4.8640940e+01 9.7839940e+01 
1.3929199e+04 4.6771319e+01 8.6729772e+01 
1.4419922e+04 4.4963789e+01 8.4928880e+01 
1.4928223e+04 4.5188855e+01 8.5348684e+01 
1.5455566e+04 4.5899907e+01 7.0316217e+01 
1.6000488e+04 4.3869660e+01 5.1625773e+01 
1.6564453e+04 4.3836726e+01 4.9036665e+01 
1.7148926e+04 4.4859990e+01 3.8971988e+01 
1.7752441e+04 4.5048857e+01 2.3255843e+01 
1.8379395e+04 4.4183712e+01 1.5437740e+01 
1.9026855e+04 4.4694125e+01 3.1120063e+00 
1.9697754e+04 4.1340619e+01 -1.7686496e+01 
1.9999512e+04 4.1559987e+01 1.0223827e+02 
