Freq[Hz]     dBSPL  Phase[Deg]
2.0507813e+01 6.4018328e+01 -5.6784325e+01 
2.1972656e+01 6.5880898e+01 -5.9322196e+01 
2.3437500e+01 6.7257854e+01 -5.9920579e+01 
2.4902344e+01 6.8196548e+01 -6.4035388e+01 
2.6367188e+01 6.9851425e+01 -7.1458179e+01 
2.7832031e+01 7.0572702e+01 -7.5008392e+01 
2.9296875e+01 7.1532463e+01 -8.0524981e+01 
3.0761719e+01 7.2488404e+01 -8.5688687e+01 
3.2226563e+01 7.3431726e+01 -9.0596879e+01 
3.3691406e+01 7.4402512e+01 -9.6359475e+01 
3.5156250e+01 7.5327186e+01 -1.0240271e+02 
3.6621094e+01 7.6193367e+01 -1.0833224e+02 
3.8085938e+01 7.7073780e+01 -1.1472139e+02 
3.9550781e+01 7.7888860e+01 -1.2083324e+02 
4.1015625e+01 7.8748183e+01 -1.2790649e+02 
4.2480469e+01 7.9529290e+01 -1.3513163e+02 
4.3945313e+01 8.0250765e+01 -1.4235573e+02 
4.5410156e+01 8.0924551e+01 -1.4993533e+02 
4.6875000e+01 8.1543271e+01 -1.5739410e+02 
4.8339844e+01 8.2110115e+01 -1.6535965e+02 
5.1269531e+01 8.2952921e+01 1.7800139e+02 
5.2734375e+01 8.3243852e+01 1.6987553e+02 
5.4199219e+01 8.3442735e+01 1.6211208e+02 
5.5664063e+01 8.3564068e+01 1.5469171e+02 
5.8593750e+01 8.3610451e+01 1.4097873e+02 
6.0058594e+01 8.3554847e+01 1.3447369e+02 
6.2988281e+01 8.3358430e+01 1.2276373e+02 
6.4453125e+01 8.3265776e+01 1.1785655e+02 
6.7382813e+01 8.3183047e+01 1.0913072e+02 
6.8847656e+01 8.3125352e+01 1.0495467e+02 
7.1777344e+01 8.2945716e+01 9.6348492e+01 
7.4707031e+01 8.2808020e+01 8.8430824e+01 
7.7636719e+01 8.2693226e+01 8.1850203e+01 
7.9101563e+01 8.2590839e+01 7.8825046e+01 
8.2031250e+01 8.2390787e+01 7.2500862e+01 
8.4960938e+01 8.2280325e+01 6.6562458e+01 
8.7890625e+01 8.2125060e+01 6.1764790e+01 
9.0820313e+01 8.1963178e+01 5.7231948e+01 
9.5214844e+01 8.1878966e+01 5.0620530e+01 
9.8144531e+01 8.1811565e+01 4.6809385e+01 
1.0107422e+02 8.1748126e+01 4.2890391e+01 
1.0546875e+02 8.1705750e+01 3.6786166e+01 
1.0839844e+02 8.1595381e+01 3.3252047e+01 
1.1279297e+02 8.1537693e+01 2.8637568e+01 
1.1718750e+02 8.1457346e+01 2.3374249e+01 
1.2011719e+02 8.1391568e+01 2.0476806e+01 
1.2451172e+02 8.1339195e+01 1.5255272e+01 
1.2890625e+02 8.1037027e+01 1.0885263e+01 
1.3330078e+02 8.0848808e+01 8.1955806e+00 
1.3916016e+02 8.0875815e+01 3.9417191e+00 
1.4355469e+02 8.0843578e+01 -1.1452674e-01 
1.4794922e+02 8.0689372e+01 -3.8719273e+00 
1.5380859e+02 8.0462335e+01 -7.3803654e+00 
1.5966797e+02 8.0573842e+01 -1.1481450e+01 
1.6552734e+02 8.0297882e+01 -1.6025650e+01 
1.7138672e+02 8.0376452e+01 -1.8862747e+01 
1.7724609e+02 8.0240062e+01 -2.4482460e+01 
1.8310547e+02 7.9861545e+01 -2.7640581e+01 
1.8896484e+02 7.9815300e+01 -2.9117200e+01 
1.9628906e+02 8.0106024e+01 -3.3587625e+01 
2.0361328e+02 7.9861772e+01 -4.0433350e+01 
2.1093750e+02 7.9531441e+01 -4.4312486e+01 
2.1826172e+02 7.9322230e+01 -4.7191621e+01 
2.2558594e+02 7.8891123e+01 -5.1896370e+01 
2.3291016e+02 7.9020800e+01 -5.0497296e+01 
2.4169922e+02 7.9137813e+01 -5.9178254e+01 
2.5048828e+02 7.8473950e+01 -6.2343088e+01 
2.5927734e+02 7.8350415e+01 -6.3869551e+01 
2.6806641e+02 7.8688239e+01 -6.7557066e+01 
2.7685547e+02 7.8247895e+01 -7.4328070e+01 
2.8710938e+02 7.7398914e+01 -7.5171980e+01 
2.9736328e+02 7.7867420e+01 -7.6565811e+01 
3.0761719e+02 7.6965873e+01 -8.1995206e+01 
3.1933594e+02 7.6999032e+01 -7.9621062e+01 
3.2958984e+02 7.6967264e+01 -7.9469984e+01 
3.4130859e+02 7.7781843e+01 -8.0957397e+01 
3.5302734e+02 7.8639348e+01 -8.9982455e+01 
3.6621094e+02 7.8528601e+01 -1.0429682e+02 
3.7939453e+02 7.7009435e+01 -1.1275597e+02 
3.9257813e+02 7.6343298e+01 -1.1522134e+02 
4.0576172e+02 7.6581135e+01 -1.1768099e+02 
4.2041016e+02 7.7317807e+01 -1.2570335e+02 
4.3505859e+02 7.5967527e+01 -1.3790219e+02 
4.5117188e+02 7.6287195e+01 -1.4140077e+02 
4.6582031e+02 7.4578268e+01 -1.5228874e+02 
4.8339844e+02 7.4105924e+01 -1.4572945e+02 
4.9951172e+02 7.3742861e+01 -1.4342249e+02 
5.1708984e+02 7.4547370e+01 -1.4790373e+02 
5.3613281e+02 7.4703547e+01 -1.5300908e+02 
5.5517578e+02 7.5045559e+01 -1.6292043e+02 
5.7421875e+02 7.3754458e+01 -1.7018143e+02 
5.9472656e+02 7.4324757e+01 -1.7651727e+02 
6.1523438e+02 7.3279510e+01 1.7778812e+02 
6.3720703e+02 7.4272541e+01 1.7203354e+02 
6.5917969e+02 7.3559650e+01 1.5899571e+02 
6.8261719e+02 7.2802021e+01 1.5206907e+02 
7.0751953e+02 7.0962619e+01 1.4984720e+02 
7.3242188e+02 7.2321021e+01 1.4193690e+02 
7.5732422e+02 6.9777620e+01 1.3883475e+02 
7.8515625e+02 7.1659554e+01 1.3640672e+02 
8.1152344e+02 7.0659289e+01 1.3227912e+02 
8.4082031e+02 7.0461082e+01 1.2194206e+02 
8.7011719e+02 7.1124805e+01 1.1941613e+02 
9.0087891e+02 7.1038172e+01 1.1126848e+02 
9.3310547e+02 6.9853809e+01 9.6085942e+01 
9.6533203e+02 6.9470373e+01 1.0415488e+02 
1.0004883e+03 7.1323122e+01 9.0562448e+01 
1.0356445e+03 7.0087959e+01 7.6809195e+01 
1.0722656e+03 7.0201437e+01 6.0348764e+01 
1.1088867e+03 6.7152875e+01 6.3734558e+01 
1.1484375e+03 6.9345651e+01 6.4000831e+01 
1.1894531e+03 6.9034673e+01 6.1221326e+01 
1.2304688e+03 7.0878625e+01 4.4726966e+01 
1.2744141e+03 7.0527504e+01 2.3468485e+01 
1.3198242e+03 6.8916763e+01 1.7276560e+01 
1.3666992e+03 7.1122870e+01 -5.0864786e+00 
1.4135742e+03 6.9480081e+01 -2.9785512e+01 
1.4633789e+03 6.3905468e+01 -5.3723881e+01 
1.5161133e+03 6.1969606e+01 -3.0134959e+01 
1.5688477e+03 6.3014123e+01 -3.2869130e+01 
1.6245117e+03 6.6912782e+01 -3.9347788e+01 
1.6816406e+03 6.5719208e+01 -7.9444562e+01 
1.7416992e+03 6.4705493e+01 -1.1838673e+02 
1.8032227e+03 6.4088206e+01 -1.7693803e+02 
1.8662109e+03 5.7786869e+01 1.6487638e+02 
1.9321289e+03 5.1665026e+01 -1.6561290e+02 
1.9995117e+03 5.9443958e+01 -1.6829694e+02 
2.0698242e+03 6.3862787e+01 1.4300265e+02 
2.1430664e+03 6.6413342e+01 1.1410788e+02 
2.2192383e+03 6.6591480e+01 7.8446226e+01 
2.2968750e+03 6.6625789e+01 7.3144567e+01 
2.3789063e+03 6.8561430e+01 4.7921409e+01 
2.4624023e+03 6.7662782e+01 2.7055796e+01 
2.5488281e+03 6.8799293e+01 3.6490205e+01 
2.6396484e+03 6.8875767e+01 -1.8819541e+01 
2.7319336e+03 7.0447852e+01 -2.7699155e+00 
2.8286133e+03 6.7982842e+01 -3.9375888e+01 
2.9282227e+03 6.8306970e+01 -5.0100141e+01 
3.0307617e+03 6.7263648e+01 -4.6997240e+01 
3.1376953e+03 6.7077229e+01 -7.4189399e+01 
3.2490234e+03 6.5065342e+01 -7.3456321e+01 
3.3632813e+03 6.3413375e+01 -9.2790758e+01 
3.4819336e+03 6.1499861e+01 -7.6426736e+01 
3.6049805e+03 5.9619201e+01 -8.7356564e+01 
3.7324219e+03 6.2647116e+01 -8.8298432e+01 
3.8642578e+03 6.1263262e+01 -8.4527852e+01 
4.0004883e+03 5.9605983e+01 -1.0870158e+02 
4.1411133e+03 5.6660947e+01 -9.3189426e+01 
4.2875977e+03 5.7923718e+01 -8.5542491e+01 
4.4384766e+03 5.9026895e+01 -8.5619328e+01 
4.5952148e+03 6.0955512e+01 -9.5011891e+01 
4.7563477e+03 6.0080372e+01 -1.1040298e+02 
4.9248047e+03 6.1262247e+01 -1.0467922e+02 
5.0976563e+03 6.1459836e+01 -1.2940018e+02 
5.2778320e+03 5.9758405e+01 -1.3057988e+02 
5.4638672e+03 6.0265895e+01 -1.3906734e+02 
5.6572266e+03 5.9727694e+01 -1.4146530e+02 
5.8564453e+03 5.9721007e+01 -1.4779387e+02 
6.0629883e+03 6.1539526e+01 -1.6020159e+02 
6.2768555e+03 6.0208751e+01 -1.7378213e+02 
6.4980469e+03 5.9077695e+01 1.7585220e+02 
6.7265625e+03 5.9257791e+01 1.6709653e+02 
6.9638672e+03 5.9044335e+01 1.6226162e+02 
7.2099609e+03 5.8455515e+01 1.5054696e+02 
7.4648438e+03 5.8634465e+01 1.3849450e+02 
7.7270508e+03 5.7820731e+01 1.3110709e+02 
7.9995117e+03 5.7727755e+01 1.1080790e+02 
8.2822266e+03 5.6123192e+01 9.6363410e+01 
8.5737305e+03 5.3534751e+01 9.0522277e+01 
8.8769531e+03 5.3215635e+01 9.3474253e+01 
9.1889648e+03 5.3478357e+01 8.2882224e+01 
9.5141602e+03 5.2900505e+01 7.1111698e+01 
9.8496094e+03 5.0815012e+01 6.3972362e+01 
1.0196777e+04 5.0551976e+01 5.8618781e+01 
1.0555664e+04 4.9040966e+01 5.3100317e+01 
1.0927734e+04 4.8309242e+01 5.5266990e+01 
1.1312988e+04 4.8475486e+01 5.2927112e+01 
1.1712891e+04 4.9184433e+01 4.1449860e+01 
1.2125977e+04 4.8799146e+01 2.2441913e+01 
1.2553711e+04 4.6770390e+01 6.3464143e+00 
1.2996094e+04 4.3876159e+01 6.2819576e+00 
1.3454590e+04 4.4594551e+01 9.0070284e+00 
1.3929199e+04 4.4902954e+01 9.5085253e-01 
1.4419922e+04 4.5367091e+01 -7.3965516e+00 
1.4928223e+04 4.6327055e+01 -2.5266513e+01 
1.5455566e+04 4.4855214e+01 -4.4143594e+01 
1.6000488e+04 4.4048425e+01 -3.6565546e+01 
1.6564453e+04 4.5825244e+01 -5.5623836e+01 
1.7148926e+04 4.5334517e+01 -7.8706611e+01 
1.7752441e+04 4.4452883e+01 -1.1391790e+02 
1.8379395e+04 4.1918205e+01 -1.4271951e+02 
1.9026855e+04 4.3080013e+01 -1.4819056e+02 
1.9697754e+04 3.9069540e+01 -1.7085045e+02 
1.9999512e+04 4.7905022e+01 8.6916264e+01 
