Freq[Hz]     dBSPL  Phase[Deg]
2.0507813e+01 6.1727332e+01 -6.7777421e+01
2.1972656e+01 6.3773974e+01 -6.8967258e+01
2.3437500e+01 6.5003125e+01 -6.8752572e+01
2.4902344e+01 6.6268055e+01 -7.2564152e+01
2.6367188e+01 6.8120723e+01 -7.9607972e+01
2.7832031e+01 6.8958417e+01 -8.3525828e+01
2.9296875e+01 6.9996984e+01 -8.9201200e+01
3.0761719e+01 7.1059260e+01 -9.4202928e+01
3.2226563e+01 7.2097708e+01 -9.9073400e+01
3.3691406e+01 7.3170304e+01 -1.0454799e+02
3.5156250e+01 7.4219135e+01 -1.1041696e+02
3.6621094e+01 7.5183377e+01 -1.1617239e+02
3.8085938e+01 7.6173318e+01 -1.2240169e+02
3.9550781e+01 7.7067285e+01 -1.2824987e+02
4.1015625e+01 7.8025697e+01 -1.3502055e+02
4.2480469e+01 7.8918531e+01 -1.4191220e+02
4.3945313e+01 7.9722669e+01 -1.4893623e+02
4.5410156e+01 8.0483052e+01 -1.5633927e+02
4.6875000e+01 8.1168111e+01 -1.6363875e+02
4.8339844e+01 8.1777560e+01 -1.7117010e+02
5.1269531e+01 8.2752383e+01 1.7286448e+02
5.2734375e+01 8.3101391e+01 1.6510422e+02
5.4199219e+01 8.3353935e+01 1.5771267e+02
5.5664063e+01 8.3523428e+01 1.5065278e+02
5.8593750e+01 8.3661733e+01 1.3769900e+02
6.0058594e+01 8.3653276e+01 1.3160451e+02
6.2988281e+01 8.3539262e+01 1.2048936e+02
6.4453125e+01 8.3472385e+01 1.1595415e+02
6.7382813e+01 8.3450417e+01 1.0800081e+02
6.8847656e+01 8.3426473e+01 1.0418892e+02
7.1777344e+01 8.3294680e+01 9.6347617e+01
7.4707031e+01 8.3208531e+01 8.9018239e+01
7.7636719e+01 8.3128378e+01 8.3124890e+01
7.9101563e+01 8.3045790e+01 8.0422215e+01
8.2031250e+01 8.2875823e+01 7.4772626e+01
8.4960938e+01 8.2793658e+01 6.9466876e+01
8.7890625e+01 8.2668882e+01 6.5272594e+01
9.0820313e+01 8.2524477e+01 6.1362078e+01
9.5214844e+01 8.2499616e+01 5.5611293e+01
9.8144531e+01 8.2448830e+01 5.2186889e+01
1.0107422e+02 8.2393426e+01 4.8732264e+01
1.0546875e+02 8.2326062e+01 4.3436929e+01
1.0839844e+02 8.2234786e+01 4.0487472e+01
1.1279297e+02 8.2148377e+01 3.6746674e+01
1.1718750e+02 8.2116871e+01 3.2526135e+01
1.2011719e+02 8.2062673e+01 3.0256144e+01
1.2451172e+02 8.2031296e+01 2.5867800e+01
1.2890625e+02 8.1795270e+01 2.2685036e+01
1.3330078e+02 8.1685583e+01 2.0319108e+01
1.3916016e+02 8.1735958e+01 1.6819918e+01
1.4355469e+02 8.1676553e+01 1.3258776e+01
1.4794922e+02 8.1476096e+01 1.0486859e+01
1.5380859e+02 8.1361351e+01 8.4181266e+00
1.5966797e+02 8.1484487e+01 4.9001269e+00
1.6552734e+02 8.1263200e+01 1.0687542e+00
1.7138672e+02 8.1249366e+01 -1.2790375e+00
1.7724609e+02 8.1104294e+01 -5.3394655e+00
1.8310547e+02 8.0845459e+01 -7.7629933e+00
1.8896484e+02 8.0683048e+01 -9.7879695e+00
1.9628906e+02 8.0834768e+01 -1.1687120e+01
2.0361328e+02 8.0600733e+01 -1.7647846e+01
2.1093750e+02 8.0209061e+01 -1.9912842e+01
2.1826172e+02 7.9994846e+01 -2.1635072e+01
2.2558594e+02 7.9500359e+01 -2.4011135e+01
2.3291016e+02 7.9814921e+01 -2.1787434e+01
2.4169922e+02 7.9756768e+01 -2.8451108e+01
2.5048828e+02 7.9354566e+01 -2.7908972e+01
2.5927734e+02 7.9642131e+01 -3.0389626e+01
2.6806641e+02 7.9815622e+01 -3.4081451e+01
2.7685547e+02 7.9272607e+01 -3.9846615e+01
2.8710938e+02 7.8512056e+01 -3.8096979e+01
2.9736328e+02 7.8975792e+01 -3.7612574e+01
3.0761719e+02 7.8572829e+01 -4.1140077e+01
3.1933594e+02 7.8712031e+01 -4.4341193e+01
3.2958984e+02 7.8323351e+01 -4.1715738e+01
3.4130859e+02 7.8973150e+01 -4.6154373e+01
3.5302734e+02 7.9192547e+01 -5.4625491e+01
3.6621094e+02 7.8118593e+01 -6.7220619e+01
3.7939453e+02 7.5938970e+01 -6.5260265e+01
3.9257813e+02 7.6278083e+01 -6.5345630e+01
4.0576172e+02 7.6253144e+01 -6.8594143e+01
4.2041016e+02 7.5735451e+01 -7.6734258e+01
4.3505859e+02 7.3876936e+01 -7.3726180e+01
4.5117188e+02 7.5726769e+01 -7.5153928e+01
4.6582031e+02 7.2255661e+01 -7.8906931e+01
4.8339844e+02 7.5107658e+01 -7.0267882e+01
4.9951172e+02 7.4151097e+01 -7.2809980e+01
5.1708984e+02 7.3836195e+01 -7.4731006e+01
5.3613281e+02 7.4475227e+01 -8.1767792e+01
5.5517578e+02 7.2110254e+01 -8.3415557e+01
5.7421875e+02 7.1721619e+01 -6.9920231e+01
5.9472656e+02 7.3611908e+01 -7.9251829e+01
6.1523438e+02 7.2724182e+01 -7.9353119e+01
6.3720703e+02 7.2744310e+01 -8.0349751e+01
6.5917969e+02 7.3664857e+01 -8.0129958e+01
6.8261719e+02 7.2576266e+01 -9.2109279e+01
7.0751953e+02 7.3446033e+01 -8.1963122e+01
7.3242188e+02 7.2866426e+01 -9.1868822e+01
7.5732422e+02 7.4629638e+01 -8.7839033e+01
7.8515625e+02 7.2271322e+01 -1.0638755e+02
8.1152344e+02 7.4012315e+01 -9.7912385e+01
8.4082031e+02 7.4168111e+01 -1.0035754e+02
8.7011719e+02 7.3649949e+01 -1.2103175e+02
9.0087891e+02 7.3710184e+01 -1.0974080e+02
9.3310547e+02 7.3934206e+01 -1.1407244e+02
9.6533203e+02 7.3811538e+01 -1.3129426e+02
1.0004883e+03 7.3784506e+01 -1.3328687e+02
1.0356445e+03 7.3239396e+01 -1.4132425e+02
1.0722656e+03 7.2515716e+01 -1.4556798e+02
1.1088867e+03 7.2806798e+01 -1.5307946e+02
1.1484375e+03 7.1971470e+01 -1.5474268e+02
1.1894531e+03 7.2511469e+01 -1.6281545e+02
1.2304688e+03 7.2129791e+01 -1.6788116e+02
1.2744141e+03 7.2615847e+01 -1.7963756e+02
1.3198242e+03 7.2003028e+01 1.6902239e+02
1.3666992e+03 7.0276066e+01 1.6224430e+02
1.4135742e+03 7.0610820e+01 1.5254416e+02
1.4633789e+03 6.9366965e+01 1.5084465e+02
1.5161133e+03 6.9114534e+01 1.3255217e+02
1.5688477e+03 6.6627466e+01 1.3035197e+02
1.6245117e+03 6.5665657e+01 1.2265661e+02
1.6816406e+03 6.5888912e+01 1.3405620e+02
1.7416992e+03 6.5112266e+01 1.2683354e+02
1.8032227e+03 6.6755119e+01 1.1673610e+02
1.8662109e+03 6.4832717e+01 1.1144504e+02
1.9321289e+03 6.4586809e+01 1.2878324e+02
1.9995117e+03 6.8143156e+01 1.0848651e+02
2.0698242e+03 6.6134248e+01 8.7099770e+01
2.1430664e+03 6.6152045e+01 9.8863777e+01
2.2192383e+03 6.7568672e+01 8.6853157e+01
2.2968750e+03 6.8818217e+01 7.0538278e+01
2.3789063e+03 6.5847292e+01 5.9044381e+01
2.4624023e+03 6.8348843e+01 5.7134398e+01
2.5488281e+03 6.8513413e+01 2.6132498e+01
2.6396484e+03 6.4430471e+01 3.6860719e+01
2.7319336e+03 6.5851594e+01 3.2845237e+01
2.8286133e+03 6.6172698e+01 2.0712956e+01
2.9282227e+03 6.6312461e+01 1.4451881e+01
3.0307617e+03 6.6533430e+01 1.7354145e+01
3.1376953e+03 6.8224343e+01 4.1075381e+00
3.2490234e+03 6.7032659e+01 -8.9437626e-01
3.3632813e+03 6.8114946e+01 -1.3523238e+01
3.4819336e+03 6.7982013e+01 -1.2070188e+01
3.6049805e+03 6.7117486e+01 -2.9130614e+01
3.7324219e+03 6.7754375e+01 -3.8300507e+01
3.8642578e+03 6.7318758e+01 -3.3905669e+01
4.0004883e+03 6.6394221e+01 -5.4614386e+01
4.1411133e+03 6.6130399e+01 -6.1909448e+01
4.2875977e+03 6.2625860e+01 -7.0199596e+01
4.4384766e+03 6.4747701e+01 -5.5716516e+01
4.5952148e+03 6.2871841e+01 -7.5470198e+01
4.7563477e+03 6.1989700e+01 -5.0087683e+01
4.9248047e+03 6.5514330e+01 -6.5494980e+01
5.0976563e+03 6.3896287e+01 -7.3125943e+01
5.2778320e+03 6.5679055e+01 -8.0794335e+01
5.4638672e+03 6.4347141e+01 -9.3507476e+01
5.6572266e+03 6.4516681e+01 -9.7482015e+01
5.8564453e+03 6.3169074e+01 -1.0975623e+02
6.0629883e+03 6.3194422e+01 -1.1146797e+02
6.2768555e+03 6.1738849e+01 -1.1679564e+02
6.4980469e+03 6.2154268e+01 -1.2240761e+02
6.7265625e+03 6.1231304e+01 -1.2720971e+02
6.9638672e+03 6.0864442e+01 -1.4033041e+02
7.2099609e+03 6.0037547e+01 -1.3873179e+02
7.4648438e+03 5.9202756e+01 -1.5019737e+02
7.7270508e+03 5.8494178e+01 -1.5973191e+02
7.9995117e+03 5.7714633e+01 -1.5864229e+02
8.2822266e+03 5.6714311e+01 -1.6433827e+02
8.5737305e+03 5.7226195e+01 -1.6995986e+02
8.8769531e+03 5.7169627e+01 -1.7554621e+02
9.1889648e+03 5.6184481e+01 1.7659516e+02
9.5141602e+03 5.5748816e+01 1.7360835e+02
9.8496094e+03 5.6511057e+01 1.6486352e+02
1.0196777e+04 5.4508164e+01 1.5261915e+02
1.0555664e+04 5.3028616e+01 1.5356380e+02
1.0927734e+04 5.3192869e+01 1.5060806e+02
1.1312988e+04 5.2085456e+01 1.4931411e+02
1.1712891e+04 5.3516725e+01 1.5517630e+02
1.2125977e+04 5.4465942e+01 1.4547406e+02
1.2553711e+04 5.4598615e+01 1.3909484e+02
1.2996094e+04 5.4747532e+01 1.2836048e+02
1.3454590e+04 5.4534758e+01 1.1230995e+02
1.3929199e+04 5.2525442e+01 1.0198699e+02
1.4419922e+04 5.2268253e+01 9.6013775e+01
1.4928223e+04 5.2598938e+01 8.6279536e+01
1.5455566e+04 5.2197834e+01 6.7206359e+01
1.6000488e+04 5.2527045e+01 5.3668726e+01
1.6564453e+04 5.2175639e+01 3.3948665e+01
1.7148926e+04 5.0984800e+01 1.4069611e+01
1.7752441e+04 4.8508965e+01 1.3448027e+00
1.8379395e+04 4.7776743e+01 -1.3061825e+01
1.9026855e+04 4.4911963e+01 -2.2834675e+01
1.9697754e+04 4.3847643e+01 -1.8883577e+01
1.9999512e+04 4.9654168e+01 5.2865178e+00
