Freq[Hz]     dBSPL  Phase[Deg]
2.0507813e+01 5.1702183e+01 -1.1388551e+02 
2.1972656e+01 5.2634858e+01 -1.1146091e+02 
2.3437500e+01 5.4758701e+01 -1.0821631e+02 
2.4902344e+01 5.6078506e+01 -1.0940818e+02 
2.6367188e+01 5.8104742e+01 -1.1108320e+02 
2.7832031e+01 5.9522728e+01 -1.1521058e+02 
2.9296875e+01 6.0853219e+01 -1.2011658e+02 
3.0761719e+01 6.2103744e+01 -1.2369366e+02 
3.2226563e+01 6.3359469e+01 -1.2737073e+02 
3.3691406e+01 6.4693289e+01 -1.3151992e+02 
3.5156250e+01 6.5958303e+01 -1.3629636e+02 
3.6621094e+01 6.7122185e+01 -1.4117805e+02 
3.8085938e+01 6.8296173e+01 -1.4641830e+02 
3.9550781e+01 6.9323734e+01 -1.5147933e+02 
4.1015625e+01 7.0435808e+01 -1.5727050e+02 
4.2480469e+01 7.1460491e+01 -1.6316178e+02 
4.3945313e+01 7.2396259e+01 -1.6940615e+02 
4.5410156e+01 7.3277143e+01 -1.7598685e+02 
4.6875000e+01 7.4070405e+01 1.7738606e+02 
4.8339844e+01 7.4765963e+01 1.7057841e+02 
5.1269531e+01 7.5909257e+01 1.5598180e+02 
5.2734375e+01 7.6330987e+01 1.4889545e+02 
5.4199219e+01 7.6644567e+01 1.4216309e+02 
5.5664063e+01 7.6877403e+01 1.3575084e+02 
5.8593750e+01 7.7131033e+01 1.2396047e+02 
6.0058594e+01 7.7170219e+01 1.1840854e+02 
6.2988281e+01 7.7149926e+01 1.0828144e+02 
6.4453125e+01 7.7110604e+01 1.0421144e+02 
6.7382813e+01 7.7152881e+01 9.7169874e+01 
6.8847656e+01 7.7153768e+01 9.3798780e+01 
7.1777344e+01 7.7059827e+01 8.6891293e+01 
7.4707031e+01 7.7009495e+01 8.0355295e+01 
7.7636719e+01 7.6966499e+01 7.5285530e+01 
7.9101563e+01 7.6902056e+01 7.2972132e+01 
8.2031250e+01 7.6763916e+01 6.8098042e+01 
8.4960938e+01 7.6706396e+01 6.3469601e+01 
8.7890625e+01 7.6612665e+01 5.9959820e+01 
9.0820313e+01 7.6501280e+01 5.6668173e+01 
9.5214844e+01 7.6502635e+01 5.1707297e+01 
9.8144531e+01 7.6481184e+01 4.8791232e+01 
1.0107422e+02 7.6431109e+01 4.5727921e+01 
1.0546875e+02 7.6342896e+01 4.1435173e+01 
1.0839844e+02 7.6292245e+01 3.9162296e+01 
1.1279297e+02 7.6254400e+01 3.6121686e+01 
1.1718750e+02 7.6282189e+01 3.2506560e+01 
1.2011719e+02 7.6228528e+01 3.0390169e+01 
1.2451172e+02 7.6169882e+01 2.7285034e+01 
1.2890625e+02 7.6040103e+01 2.5056047e+01 
1.3330078e+02 7.6097116e+01 2.3103663e+01 
1.3916016e+02 7.6165467e+01 1.9078131e+01 
1.4355469e+02 7.6016468e+01 1.6120923e+01 
1.4794922e+02 7.5822447e+01 1.4345955e+01 
1.5380859e+02 7.5772521e+01 1.3141608e+01 
1.5966797e+02 7.5913632e+01 1.0399270e+01 
1.6552734e+02 7.5806168e+01 7.5607785e+00 
1.7138672e+02 7.5819142e+01 5.0432180e+00 
1.7724609e+02 7.5598396e+01 2.0364940e+00 
1.8310547e+02 7.5396422e+01 7.4544366e-01 
1.8896484e+02 7.5296486e+01 -2.1373168e-01 
1.9628906e+02 7.5612185e+01 -2.2038983e+00 
2.0361328e+02 7.5304707e+01 -6.6750281e+00 
2.1093750e+02 7.4993908e+01 -8.2126066e+00 
2.1826172e+02 7.4955289e+01 -8.7253019e+00 
2.2558594e+02 7.4704177e+01 -9.4809387e+00 
2.3291016e+02 7.5268851e+01 -1.0718091e+01 
2.4169922e+02 7.4754327e+01 -1.4875927e+01 
2.5048828e+02 7.4960936e+01 -1.3758741e+01 
2.5927734e+02 7.5220138e+01 -1.7823925e+01 
2.6806641e+02 7.5056694e+01 -2.3395221e+01 
2.7685547e+02 7.4123648e+01 -2.3970726e+01 
2.8710938e+02 7.4265747e+01 -2.1214060e+01 
2.9736328e+02 7.4807544e+01 -2.4670600e+01 
3.0761719e+02 7.4061382e+01 -2.7929911e+01 
3.1933594e+02 7.3642889e+01 -3.1012003e+01 
3.2958984e+02 7.3484806e+01 -2.7840235e+01 
3.4130859e+02 7.3323027e+01 -3.1491233e+01 
3.5302734e+02 7.2808619e+01 -3.3254695e+01 
3.6621094e+02 7.1619918e+01 -3.3974413e+01 
3.7939453e+02 7.2506364e+01 -2.5075083e+01 
3.9257813e+02 7.3019196e+01 -3.3080839e+01 
4.0576172e+02 7.2831779e+01 -3.9133981e+01 
4.2041016e+02 7.2485894e+01 -4.0046184e+01 
4.3505859e+02 7.2717488e+01 -4.0102943e+01 
4.5117188e+02 7.2605287e+01 -4.7632295e+01 
4.6582031e+02 7.2425909e+01 -3.9110483e+01 
4.8339844e+02 7.2938167e+01 -4.7867201e+01 
4.9951172e+02 7.3041934e+01 -4.7457099e+01 
5.1708984e+02 7.2663948e+01 -5.0028813e+01 
5.3613281e+02 7.1806218e+01 -5.2702772e+01 
5.5517578e+02 7.2628166e+01 -4.8184451e+01 
5.7421875e+02 7.3237099e+01 -5.2531632e+01 
5.9472656e+02 7.3200530e+01 -6.0716231e+01 
6.1523438e+02 7.3149575e+01 -6.7464782e+01 
6.3720703e+02 7.2859321e+01 -6.9720273e+01 
6.5917969e+02 7.2730419e+01 -7.7837241e+01 
6.8261719e+02 7.1650967e+01 -7.7540572e+01 
7.0751953e+02 7.1821465e+01 -8.3855558e+01 
7.3242188e+02 7.0556885e+01 -8.2892458e+01 
7.5732422e+02 7.0650188e+01 -9.2381269e+01 
7.8515625e+02 6.9643164e+01 -8.0070507e+01 
8.1152344e+02 6.9801614e+01 -8.5469785e+01 
8.4082031e+02 6.9720328e+01 -8.9692140e+01 
8.7011719e+02 7.0145974e+01 -8.0735509e+01 
9.0087891e+02 7.0386904e+01 -9.0396594e+01 
9.3310547e+02 7.0159680e+01 -9.5128803e+01 
9.6533203e+02 7.0681357e+01 -9.3313950e+01 
1.0004883e+03 7.0387830e+01 -9.9658678e+01 
1.0356445e+03 7.0350303e+01 -1.0367405e+02 
1.0722656e+03 7.0727331e+01 -1.0481929e+02 
1.1088867e+03 7.1031273e+01 -1.0808036e+02 
1.1484375e+03 7.1517875e+01 -1.1550916e+02 
1.1894531e+03 7.1558397e+01 -1.2656588e+02 
1.2304688e+03 7.1224043e+01 -1.3324964e+02 
1.2744141e+03 7.0728583e+01 -1.4155592e+02 
1.3198242e+03 7.0055361e+01 -1.4216708e+02 
1.3666992e+03 6.9756492e+01 -1.5107236e+02 
1.4135742e+03 6.9785929e+01 -1.4987203e+02 
1.4633789e+03 7.0169661e+01 -1.6132805e+02 
1.5161133e+03 6.9296101e+01 -1.6739261e+02 
1.5688477e+03 6.8316007e+01 -1.7219669e+02 
1.6245117e+03 6.8804437e+01 -1.7451490e+02 
1.6816406e+03 6.9067194e+01 1.7935255e+02 
1.7416992e+03 6.9143115e+01 1.6846550e+02 
1.8032227e+03 6.7630006e+01 1.6549292e+02 
1.8662109e+03 6.7465640e+01 1.6689933e+02 
1.9321289e+03 6.8647200e+01 1.6380754e+02 
1.9995117e+03 6.9133215e+01 1.5217584e+02 
2.0698242e+03 6.8729720e+01 1.4334556e+02 
2.1430664e+03 6.8954928e+01 1.3885509e+02 
2.2192383e+03 6.9049708e+01 1.3326554e+02 
2.2968750e+03 6.9494304e+01 1.2479473e+02 
2.3789063e+03 6.9465876e+01 1.2182538e+02 
2.4624023e+03 6.9962481e+01 1.0992008e+02 
2.5488281e+03 7.0022319e+01 1.0222759e+02 
2.6396484e+03 6.9243080e+01 9.4886655e+01 
2.7319336e+03 7.0440492e+01 9.2364853e+01 
2.8286133e+03 7.1095721e+01 8.3779782e+01 
2.9282227e+03 7.0321291e+01 7.1745974e+01 
3.0307617e+03 7.0708210e+01 6.8664941e+01 
3.1376953e+03 7.0694299e+01 6.0313405e+01 
3.2490234e+03 7.0424344e+01 5.5739019e+01 
3.3632813e+03 7.0521193e+01 5.0547657e+01 
3.4819336e+03 6.9993662e+01 4.6282033e+01 
3.6049805e+03 7.0514506e+01 4.2092003e+01 
3.7324219e+03 6.9986005e+01 3.6019185e+01 
3.8642578e+03 7.0032492e+01 3.1075220e+01 
4.0004883e+03 6.9365144e+01 2.5871099e+01 
4.1411133e+03 6.9983776e+01 2.0859883e+01 
4.2875977e+03 6.8739228e+01 1.6910903e+01 
4.4384766e+03 6.9442984e+01 1.0813270e+01 
4.5952148e+03 6.8377364e+01 1.1664475e+01 
4.7563477e+03 6.9203830e+01 5.5331498e+00 
4.9248047e+03 6.9406881e+01 3.6154972e+00 
5.0976563e+03 6.9412614e+01 -3.5288536e+00 
5.2778320e+03 6.9866944e+01 -1.3495060e+01 
5.4638672e+03 6.8934531e+01 -1.5294618e+01 
5.6572266e+03 6.8698642e+01 -2.1084607e+01 
5.8564453e+03 6.8735544e+01 -2.4587435e+01 
6.0629883e+03 6.9163247e+01 -3.0683217e+01 
6.2768555e+03 6.8688050e+01 -3.4729126e+01 
6.4980469e+03 6.8460301e+01 -4.5681447e+01 
6.7265625e+03 6.8371719e+01 -4.9550723e+01 
6.9638672e+03 6.7409346e+01 -5.6354645e+01 
7.2099609e+03 6.7349739e+01 -6.0926032e+01 
7.4648438e+03 6.6907554e+01 -6.3625037e+01 
7.7270508e+03 6.6033881e+01 -7.0684524e+01 
7.9995117e+03 6.5945987e+01 -7.3364337e+01 
8.2822266e+03 6.5971205e+01 -7.5454256e+01 
8.5737305e+03 6.5461700e+01 -7.9727687e+01 
8.8769531e+03 6.5319419e+01 -8.4337718e+01 
9.1889648e+03 6.5607234e+01 -9.0028014e+01 
9.5141602e+03 6.5168934e+01 -9.6271346e+01 
9.8496094e+03 6.4581276e+01 -9.8870728e+01 
1.0196777e+04 6.4387841e+01 -1.0346981e+02 
1.0555664e+04 6.3663956e+01 -1.0928032e+02 
1.0927734e+04 6.2678692e+01 -1.1082648e+02 
1.1312988e+04 6.1911936e+01 -1.0866110e+02 
1.1712891e+04 6.2091671e+01 -1.0431558e+02 
1.2125977e+04 6.2863805e+01 -1.0650434e+02 
1.2553711e+04 6.3273312e+01 -1.1286207e+02 
1.2996094e+04 6.3162264e+01 -1.1975216e+02 
1.3454590e+04 6.3089606e+01 -1.2721683e+02 
1.3929199e+04 6.2773978e+01 -1.3539661e+02 
1.4419922e+04 6.2079155e+01 -1.4426295e+02 
1.4928223e+04 6.1091991e+01 -1.4748514e+02 
1.5455566e+04 6.1813353e+01 -1.4867585e+02 
1.6000488e+04 6.2569970e+01 -1.5991506e+02 
1.6564453e+04 6.2858526e+01 -1.7217354e+02 
1.7148926e+04 6.2796448e+01 1.7390452e+02 
1.7752441e+04 6.1807215e+01 1.6056760e+02 
1.8379395e+04 6.0584382e+01 1.5249143e+02 
1.9026855e+04 5.8790965e+01 1.5135356e+02 
1.9697754e+04 5.9762810e+01 1.5201197e+02 
1.9999512e+04 5.9792558e+01 1.5049056e+02 
