Freq[Hz]     dBSPL  Phase[Deg]
2.0507813e+01 5.4578487e+01 -7.2958574e+01 
2.1972656e+01 5.6198878e+01 -7.2990949e+01 
2.3437500e+01 5.8099167e+01 -7.4230317e+01 
2.4902344e+01 5.9177028e+01 -7.8179978e+01 
2.6367188e+01 6.0983068e+01 -8.4345216e+01 
2.7832031e+01 6.1918846e+01 -8.9113807e+01 
2.9296875e+01 6.3015098e+01 -9.4898602e+01 
3.0761719e+01 6.4103484e+01 -9.9948654e+01 
3.2226563e+01 6.5175643e+01 -1.0492325e+02 
3.3691406e+01 6.6313843e+01 -1.1069576e+02 
3.5156250e+01 6.7374856e+01 -1.1682286e+02 
3.6621094e+01 6.8369706e+01 -1.2283291e+02 
3.8085938e+01 6.9374499e+01 -1.2921220e+02 
3.9550781e+01 7.0288047e+01 -1.3529438e+02 
4.1015625e+01 7.1265119e+01 -1.4230811e+02 
4.2480469e+01 7.2151123e+01 -1.4937121e+02 
4.3945313e+01 7.2973814e+01 -1.5649524e+02 
4.5410156e+01 7.3744780e+01 -1.6391838e+02 
4.6875000e+01 7.4452328e+01 -1.7127292e+02 
4.8339844e+01 7.5102071e+01 -1.7905076e+02 
5.1269531e+01 7.6100697e+01 1.6464245e+02 
5.2734375e+01 7.6463302e+01 1.5671575e+02 
5.4199219e+01 7.6725633e+01 1.4917391e+02 
5.5664063e+01 7.6912168e+01 1.4197719e+02 
5.8593750e+01 7.7076300e+01 1.2865991e+02 
6.0058594e+01 7.7070260e+01 1.2234316e+02 
6.2988281e+01 7.6969980e+01 1.1101076e+02 
6.4453125e+01 7.6911315e+01 1.0630677e+02 
6.7382813e+01 7.6902668e+01 9.7962977e+01 
6.8847656e+01 7.6876578e+01 9.3976779e+01 
7.1777344e+01 7.6748903e+01 8.5813482e+01 
7.4707031e+01 7.6656988e+01 7.8261942e+01 
7.7636719e+01 7.6590439e+01 7.2086721e+01 
7.9101563e+01 7.6510263e+01 6.9253713e+01 
8.2031250e+01 7.6352326e+01 6.3297843e+01 
8.4960938e+01 7.6273814e+01 5.7655238e+01 
8.7890625e+01 7.6152225e+01 5.3175465e+01 
9.0820313e+01 7.6021914e+01 4.8909239e+01 
9.5214844e+01 7.5963843e+01 4.2689793e+01 
9.8144531e+01 7.5930397e+01 3.9135285e+01 
1.0107422e+02 7.5882244e+01 3.5359937e+01 
1.0546875e+02 7.5839629e+01 2.9718373e+01 
1.0839844e+02 7.5765640e+01 2.6529163e+01 
1.1279297e+02 7.5742480e+01 2.2130020e+01 
1.1718750e+02 7.5707417e+01 1.7192128e+01 
1.2011719e+02 7.5647090e+01 1.4221794e+01 
1.2451172e+02 7.5555902e+01 9.7941179e+00 
1.2890625e+02 7.5330874e+01 6.0255530e+00 
1.3330078e+02 7.5273449e+01 3.5844358e+00 
1.3916016e+02 7.5336890e+01 -1.1653153e+00 
1.4355469e+02 7.5258934e+01 -5.0543498e+00 
1.4794922e+02 7.5104126e+01 -8.4087230e+00 
1.5380859e+02 7.4884773e+01 -1.1460537e+01 
1.5966797e+02 7.4993116e+01 -1.5031336e+01 
1.6552734e+02 7.4807741e+01 -1.8853220e+01 
1.7138672e+02 7.4928113e+01 -2.2122033e+01 
1.7724609e+02 7.4700037e+01 -2.7194860e+01 
1.8310547e+02 7.4370374e+01 -2.9428366e+01 
1.8896484e+02 7.4420843e+01 -3.0732199e+01 
1.9628906e+02 7.4714709e+01 -3.5444963e+01 
2.0361328e+02 7.4436598e+01 -4.1227205e+01 
2.1093750e+02 7.4183257e+01 -4.4947082e+01 
2.1826172e+02 7.4061984e+01 -4.7328046e+01 
2.2558594e+02 7.3726454e+01 -5.0838875e+01 
2.3291016e+02 7.4138248e+01 -5.1783073e+01 
2.4169922e+02 7.3817890e+01 -5.9574792e+01 
2.5048828e+02 7.3513948e+01 -6.0994449e+01 
2.5927734e+02 7.3558989e+01 -6.3596406e+01 
2.6806641e+02 7.3732777e+01 -6.8871281e+01 
2.7685547e+02 7.3047742e+01 -7.3156862e+01 
2.8710938e+02 7.2855199e+01 -7.1830627e+01 
2.9736328e+02 7.3466273e+01 -7.6145335e+01 
3.0761719e+02 7.2870775e+01 -8.1572764e+01 
3.1933594e+02 7.3007000e+01 -8.4169570e+01 
3.2958984e+02 7.2681873e+01 -8.7004938e+01 
3.4130859e+02 7.3016288e+01 -9.1127227e+01 
3.5302734e+02 7.2923839e+01 -9.9782102e+01 
3.6621094e+02 7.2133556e+01 -1.1067467e+02 
3.7939453e+02 7.0598162e+01 -1.1155168e+02 
3.9257813e+02 7.0499067e+01 -1.1193575e+02 
4.0576172e+02 7.0972380e+01 -1.1560190e+02 
4.2041016e+02 7.1019015e+01 -1.2686749e+02 
4.3505859e+02 7.0195543e+01 -1.2888792e+02 
4.5117188e+02 7.0100955e+01 -1.3565931e+02 
4.6582031e+02 6.9046369e+01 -1.3590943e+02 
4.8339844e+02 6.9324038e+01 -1.3783158e+02 
4.9951172e+02 6.9364898e+01 -1.3478424e+02 
5.1708984e+02 7.0067117e+01 -1.4130963e+02 
5.3613281e+02 7.0168003e+01 -1.4813560e+02 
5.5517578e+02 7.0106514e+01 -1.5848676e+02 
5.7421875e+02 6.9489001e+01 -1.6602166e+02 
5.9472656e+02 6.8654137e+01 -1.7123342e+02 
6.1523438e+02 6.8872110e+01 -1.7224289e+02 
6.3720703e+02 6.8875530e+01 1.7342595e+02 
6.5917969e+02 6.7491951e+01 1.7213872e+02 
6.8261719e+02 6.7228247e+01 1.7048306e+02 
7.0751953e+02 6.8570081e+01 1.6921877e+02 
7.3242188e+02 6.7778057e+01 1.5334606e+02 
7.5732422e+02 6.7849388e+01 1.5318059e+02 
7.8515625e+02 6.7588217e+01 1.4000011e+02 
8.1152344e+02 6.6553059e+01 1.3342207e+02 
8.4082031e+02 6.6507488e+01 1.3244992e+02 
8.7011719e+02 6.6745352e+01 1.1967491e+02 
9.0087891e+02 6.5404647e+01 1.0996042e+02 
9.3310547e+02 6.4772373e+01 1.1063890e+02 
9.6533203e+02 6.5460200e+01 9.9753589e+01 
1.0004883e+03 6.2639899e+01 8.8895214e+01 
1.0356445e+03 6.2244984e+01 8.8054753e+01 
1.0722656e+03 6.2942761e+01 1.0787929e+02 
1.1088867e+03 6.5224023e+01 9.5084578e+01 
1.1484375e+03 6.5358661e+01 6.5772321e+01 
1.1894531e+03 6.4517293e+01 6.4666999e+01 
1.2304688e+03 6.4293280e+01 3.6241763e+01 
1.2744141e+03 6.1088636e+01 3.9994887e+01 
1.3198242e+03 6.1816212e+01 1.5115867e+01 
1.3666992e+03 5.0534058e+01 -1.5087679e+01 
1.4135742e+03 6.0426608e+01 6.3316176e+01 
1.4633789e+03 6.2320018e+01 1.1072131e+01 
1.5161133e+03 5.9141090e+01 -1.3850594e+01 
1.5688477e+03 5.7709653e+01 -2.6347617e+01 
1.6245117e+03 5.8724448e+01 -4.5786918e+01 
1.6816406e+03 5.9637599e+01 -1.1337296e+02 
1.7416992e+03 4.9435076e+01 1.5457122e+02 
1.8032227e+03 4.9986189e+01 -9.2114782e+01 
1.8662109e+03 6.0982095e+01 -1.2508588e+02 
1.9321289e+03 6.2980907e+01 1.7196180e+02 
1.9995117e+03 6.0957708e+01 1.5394755e+02 
2.0698242e+03 5.9272792e+01 1.3104298e+02 
2.1430664e+03 6.3064280e+01 1.3279934e+02 
2.2192383e+03 6.3317615e+01 1.2105220e+02 
2.2968750e+03 6.3770706e+01 1.0533614e+02 
2.3789063e+03 6.3059027e+01 8.5454431e+01 
2.4624023e+03 6.4196787e+01 9.5302943e+01 
2.5488281e+03 6.7048156e+01 7.5616228e+01 
2.6396484e+03 6.2575064e+01 4.7900314e+01 
2.7319336e+03 6.6376824e+01 6.1084211e+01 
2.8286133e+03 6.4198576e+01 5.8570109e+01 
2.9282227e+03 6.5439269e+01 5.0476980e+01 
3.0307617e+03 6.3518638e+01 1.3364998e+01 
3.1376953e+03 6.3204695e+01 4.1395667e+01 
3.2490234e+03 6.1508766e+01 4.9405185e+00 
3.3632813e+03 6.2493956e+01 3.2428134e+01 
3.4819336e+03 5.8876850e+01 1.9579088e+01 
3.6049805e+03 6.2641924e+01 2.3610904e+01 
3.7324219e+03 6.2132872e+01 3.1378827e+01 
3.8642578e+03 6.1368224e+01 5.8057218e+00 
4.0004883e+03 6.1328585e+01 1.2204749e+01 
4.1411133e+03 6.1197290e+01 1.8301077e+01 
4.2875977e+03 6.0789431e+01 1.1932985e+01 
4.4384766e+03 6.2894548e+01 -4.8242117e-02 
4.5952148e+03 6.2086443e+01 -6.4373853e-01 
4.7563477e+03 6.1312213e+01 -5.9633579e+00 
4.9248047e+03 6.0857358e+01 -1.6416006e+01 
5.0976563e+03 6.0842306e+01 -2.4339886e+01 
5.2778320e+03 6.0451481e+01 -1.9119828e+01 
5.4638672e+03 5.8543933e+01 -2.7044504e+01 
5.6572266e+03 5.8655600e+01 -2.7455378e+01 
5.8564453e+03 5.9926808e+01 -2.1427870e+01 
6.0629883e+03 6.0184820e+01 -2.6936635e+01 
6.2768555e+03 5.9753439e+01 -4.6160682e+01 
6.4980469e+03 5.8913577e+01 -5.0816593e+01 
6.7265625e+03 5.7608027e+01 -5.6714969e+01 
6.9638672e+03 5.3516836e+01 -5.7738842e+01 
7.2099609e+03 5.6537974e+01 -4.7159681e+01 
7.4648438e+03 5.7822141e+01 -4.8725565e+01 
7.7270508e+03 5.5648319e+01 -7.3052954e+01 
7.9995117e+03 5.4265092e+01 -7.1649134e+01 
8.2822266e+03 5.5087434e+01 -6.5124716e+01 
8.5737305e+03 5.3921376e+01 -7.2185022e+01 
8.8769531e+03 5.2130627e+01 -7.3932732e+01 
9.1889648e+03 5.2411144e+01 -7.1993677e+01 
9.5141602e+03 5.2089530e+01 -7.4317062e+01 
9.8496094e+03 5.2588713e+01 -8.2178975e+01 
1.0196777e+04 5.0713159e+01 -8.8019105e+01 
1.0555664e+04 4.7582355e+01 -8.7502743e+01 
1.0927734e+04 4.7844811e+01 -7.7853147e+01 
1.1312988e+04 4.8005403e+01 -7.7708151e+01 
1.1712891e+04 4.6121488e+01 -7.2083020e+01 
1.2125977e+04 4.6215072e+01 -6.5086464e+01 
1.2553711e+04 4.6745164e+01 -6.0942752e+01 
1.2996094e+04 4.8279253e+01 -6.9291948e+01 
1.3454590e+04 4.7281020e+01 -8.3685250e+01 
1.3929199e+04 4.4892294e+01 -8.9676169e+01 
1.4419922e+04 4.2616421e+01 -8.4283935e+01 
1.4928223e+04 4.2685922e+01 -7.4716821e+01 
1.5455566e+04 4.4842300e+01 -7.3364622e+01 
1.6000488e+04 4.5115449e+01 -9.3073936e+01 
1.6564453e+04 4.2982197e+01 -1.0368270e+02 
1.7148926e+04 4.2822139e+01 -9.9898802e+01 
1.7752441e+04 4.2766655e+01 -1.1055852e+02 
1.8379395e+04 4.1196716e+01 -1.1741583e+02 
1.9026855e+04 4.0738854e+01 -1.0859566e+02 
1.9697754e+04 4.0670850e+01 -1.1822650e+02 
1.9999512e+04 3.5848309e+01 -1.0046146e+02 
