Freq[Hz]     dBSPL  Phase[Deg]
2.0507813e+01 5.8731227e+01 -5.4676002e+01 
2.1972656e+01 6.0706869e+01 -5.7758116e+01 
2.3437500e+01 6.1832506e+01 -5.7075098e+01 
2.4902344e+01 6.2901084e+01 -6.1412540e+01 
2.6367188e+01 6.4534547e+01 -6.9219407e+01 
2.7832031e+01 6.5201154e+01 -7.2303294e+01 
2.9296875e+01 6.6138716e+01 -7.7633124e+01 
3.0761719e+01 6.7089255e+01 -8.2668725e+01 
3.2226563e+01 6.8010270e+01 -8.7561023e+01 
3.3691406e+01 6.8946600e+01 -9.3020921e+01 
3.5156250e+01 6.9869808e+01 -9.8873139e+01 
3.6621094e+01 7.0724323e+01 -1.0463067e+02 
3.8085938e+01 7.1594214e+01 -1.1088932e+02 
3.9550781e+01 7.2398118e+01 -1.1685141e+02 
4.1015625e+01 7.3245781e+01 -1.2371823e+02 
4.2480469e+01 7.4028341e+01 -1.3079824e+02 
4.3945313e+01 7.4738926e+01 -1.3791611e+02 
4.5410156e+01 7.5404620e+01 -1.4541685e+02 
4.6875000e+01 7.6009281e+01 -1.5278542e+02 
4.8339844e+01 7.6556220e+01 -1.6057333e+02 
5.1269531e+01 7.7382959e+01 -1.7694018e+02 
5.2734375e+01 7.7664927e+01 1.7506712e+02 
5.4199219e+01 7.7856255e+01 1.6742447e+02 
5.5664063e+01 7.7966099e+01 1.6011888e+02 
5.8593750e+01 7.7994921e+01 1.4668649e+02 
6.0058594e+01 7.7937786e+01 1.4033239e+02 
6.2988281e+01 7.7728267e+01 1.2880574e+02 
6.4453125e+01 7.7630720e+01 1.2401155e+02 
6.7382813e+01 7.7536351e+01 1.1555586e+02 
6.8847656e+01 7.7478509e+01 1.1150328e+02 
7.1777344e+01 7.7293646e+01 1.0311729e+02 
7.4707031e+01 7.7158432e+01 9.5384475e+01 
7.7636719e+01 7.7034043e+01 8.8981339e+01 
7.9101563e+01 7.6928602e+01 8.6046415e+01 
8.2031250e+01 7.6718953e+01 7.9946844e+01 
8.4960938e+01 7.6607639e+01 7.4252856e+01 
8.7890625e+01 7.6454203e+01 6.9646136e+01 
9.0820313e+01 7.6285254e+01 6.5326105e+01 
9.5214844e+01 7.6220029e+01 5.9017043e+01 
9.8144531e+01 7.6142125e+01 5.5283619e+01 
1.0107422e+02 7.6073278e+01 5.1599206e+01 
1.0546875e+02 7.6020022e+01 4.5703709e+01 
1.0839844e+02 7.5898011e+01 4.2333509e+01 
1.1279297e+02 7.5809274e+01 3.8157833e+01 
1.1718750e+02 7.5725596e+01 3.3347824e+01 
1.2011719e+02 7.5670607e+01 3.0897102e+01 
1.2451172e+02 7.5662369e+01 2.5727381e+01 
1.2890625e+02 7.5362978e+01 2.1684392e+01 
1.3330078e+02 7.5140089e+01 1.9026079e+01 
1.3916016e+02 7.5160854e+01 1.5528456e+01 
1.4355469e+02 7.5143175e+01 1.1729730e+01 
1.4794922e+02 7.4965690e+01 8.3223874e+00 
1.5380859e+02 7.4819000e+01 5.5443141e+00 
1.5966797e+02 7.4949913e+01 1.4019578e+00 
1.6552734e+02 7.4676968e+01 -3.1159700e+00 
1.7138672e+02 7.4679777e+01 -5.5748276e+00 
1.7724609e+02 7.4590127e+01 -1.0431395e+01 
1.8310547e+02 7.4292391e+01 -1.3605873e+01 
1.8896484e+02 7.4169328e+01 -1.5720330e+01 
1.9628906e+02 7.4339283e+01 -1.8848315e+01 
2.0361328e+02 7.4157759e+01 -2.5532506e+01 
2.1093750e+02 7.3762503e+01 -2.8760020e+01 
2.1826172e+02 7.3517749e+01 -3.1615218e+01 
2.2558594e+02 7.3011371e+01 -3.5749702e+01 
2.3291016e+02 7.2975807e+01 -3.2989702e+01 
2.4169922e+02 7.3227524e+01 -4.0008705e+01 
2.5048828e+02 7.2621493e+01 -4.2138353e+01 
2.5927734e+02 7.2667767e+01 -4.3879743e+01 
2.6806641e+02 7.2912550e+01 -4.6382918e+01 
2.7685547e+02 7.2755433e+01 -5.3095569e+01 
2.8710938e+02 7.1764893e+01 -5.5391012e+01 
2.9736328e+02 7.1970639e+01 -5.5272312e+01 
3.0761719e+02 7.1045354e+01 -5.9243151e+01 
3.1933594e+02 7.1273051e+01 -5.6660618e+01 
3.2958984e+02 7.0901120e+01 -5.4773870e+01 
3.4130859e+02 7.1888374e+01 -5.4318806e+01 
3.5302734e+02 7.3054378e+01 -6.2137091e+01 
3.6621094e+02 7.3003457e+01 -7.6877831e+01 
3.7939453e+02 7.1590658e+01 -8.4288378e+01 
3.9257813e+02 7.1223597e+01 -8.8751763e+01 
4.0576172e+02 7.1062699e+01 -9.1341970e+01 
4.2041016e+02 7.1605297e+01 -9.8157317e+01 
4.3505859e+02 7.0251786e+01 -1.1120780e+02 
4.5117188e+02 7.0562060e+01 -1.0683443e+02 
4.6582031e+02 6.9555827e+01 -1.2396821e+02 
4.8339844e+02 6.8553062e+01 -1.1112335e+02 
4.9951172e+02 6.8956292e+01 -1.1166168e+02 
5.1708984e+02 6.9505737e+01 -1.2163906e+02 
5.3613281e+02 6.9279483e+01 -1.2547899e+02 
5.5517578e+02 6.8884313e+01 -1.3443591e+02 
5.7421875e+02 6.7616997e+01 -1.4253985e+02 
5.9472656e+02 6.8265105e+01 -1.3695889e+02 
6.1523438e+02 6.8310152e+01 -1.5021748e+02 
6.3720703e+02 6.8566429e+01 -1.5628500e+02 
6.5917969e+02 6.8309130e+01 -1.6571224e+02 
6.8261719e+02 6.7977852e+01 -1.7207151e+02 
7.0751953e+02 6.6537067e+01 1.6764274e+02 
7.3242188e+02 6.7096855e+01 1.7137687e+02 
7.5732422e+02 6.4056288e+01 1.4563786e+02 
7.8515625e+02 6.6042101e+01 1.6395772e+02 
8.1152344e+02 6.1234015e+01 1.4359979e+02 
8.4082031e+02 6.3339951e+01 1.4049541e+02 
8.7011719e+02 6.2107820e+01 1.5669945e+02 
9.0087891e+02 6.1223216e+01 1.4202509e+02 
9.3310547e+02 6.3704415e+01 1.3269326e+02 
9.6533203e+02 6.3137913e+01 1.1719768e+02 
1.0004883e+03 6.0588226e+01 1.1398996e+02 
1.0356445e+03 6.0562866e+01 9.4638656e+01 
1.0722656e+03 6.0201825e+01 9.8126871e+01 
1.1088867e+03 6.0148558e+01 9.9632419e+01 
1.1484375e+03 6.0183058e+01 8.8259818e+01 
1.1894531e+03 5.8677544e+01 5.8316202e+01 
1.2304688e+03 5.8790257e+01 4.5931675e+01 
1.2744141e+03 5.6455397e+01 3.9567837e+01 
1.3198242e+03 5.5144157e+01 3.6401302e+01 
1.3666992e+03 5.4305712e+01 1.6744137e+01 
1.4135742e+03 4.0884866e+01 1.7262183e+01 
1.4633789e+03 5.0593557e+01 5.5656478e+01 
1.5161133e+03 3.9501419e+01 1.1088593e+01 
1.5688477e+03 4.2729059e+01 8.4490969e+01 
1.6245117e+03 4.4611683e+01 9.1411010e+01 
1.6816406e+03 5.2371616e+01 7.3517056e+01 
1.7416992e+03 5.0872983e+01 5.9343656e+01 
1.8032227e+03 4.6857621e+01 3.5091362e+01 
1.8662109e+03 5.5300959e+01 9.3697539e+01 
1.9321289e+03 5.5379932e+01 5.0782506e+01 
1.9995117e+03 5.4638871e+01 3.1284018e+01 
2.0698242e+03 5.6674068e+01 2.8117663e+01 
2.1430664e+03 5.5639879e+01 2.3657883e+01 
2.2192383e+03 6.0251863e+01 8.6251662e+00 
2.2968750e+03 6.1642211e+01 -1.7417756e+01 
2.3789063e+03 6.0272015e+01 -4.6651290e+01 
2.4624023e+03 5.8209461e+01 -5.4085022e+01 
2.5488281e+03 6.0485000e+01 -5.6224884e+01 
2.6396484e+03 5.9462279e+01 -7.4506781e+01 
2.7319336e+03 6.1440780e+01 -7.9782674e+01 
2.8286133e+03 6.0233707e+01 -9.1421672e+01 
2.9282227e+03 6.0731839e+01 -1.2068376e+02 
3.0307617e+03 6.2078790e+01 -1.2618274e+02 
3.1376953e+03 6.1574857e+01 -1.4308721e+02 
3.2490234e+03 6.2881089e+01 -1.6356800e+02 
3.3632813e+03 6.0851366e+01 -1.6358485e+02 
3.4819336e+03 6.1755356e+01 1.6960343e+02 
3.6049805e+03 6.3044537e+01 1.6610156e+02 
3.7324219e+03 6.1048665e+01 1.4551457e+02 
3.8642578e+03 6.2675830e+01 1.2751235e+02 
4.0004883e+03 6.1143079e+01 1.0909373e+02 
4.1411133e+03 6.0691795e+01 1.0078672e+02 
4.2875977e+03 6.0079213e+01 8.6143567e+01 
4.4384766e+03 6.0238427e+01 6.8085132e+01 
4.5952148e+03 5.9292507e+01 5.0606839e+01 
4.7563477e+03 5.9442216e+01 3.6964655e+01 
4.9248047e+03 5.8683119e+01 2.2288984e+01 
5.0976563e+03 5.7615712e+01 2.2091774e+00 
5.2778320e+03 5.7962311e+01 -4.1948740e+00 
5.4638672e+03 5.8080910e+01 -2.8503355e+01 
5.6572266e+03 5.6564995e+01 -4.4652291e+01 
5.8564453e+03 5.5890402e+01 -5.3786094e+01 
6.0629883e+03 5.6695210e+01 -6.9004235e+01 
6.2768555e+03 5.5956798e+01 -8.1596998e+01 
6.4980469e+03 5.6264748e+01 -1.0955657e+02 
6.7265625e+03 5.5671675e+01 -1.1986801e+02 
6.9638672e+03 5.4562133e+01 -1.4726903e+02 
7.2099609e+03 5.3959871e+01 -1.6506686e+02 
7.4648438e+03 5.2072061e+01 -1.7740119e+02 
7.7270508e+03 5.1533426e+01 1.6942344e+02 
7.9995117e+03 5.1513605e+01 1.4941656e+02 
8.2822266e+03 5.1888991e+01 1.2581227e+02 
8.5737305e+03 5.1160180e+01 1.0641753e+02 
8.8769531e+03 4.9926109e+01 8.2102275e+01 
9.1889648e+03 4.9686633e+01 6.3233643e+01 
9.5141602e+03 4.9534510e+01 3.7983715e+01 
9.8496094e+03 4.7923690e+01 1.9372013e+01 
1.0196777e+04 4.7878431e+01 -6.0820756e+00 
1.0555664e+04 4.7219027e+01 -3.3229019e+01 
1.0927734e+04 4.5927947e+01 -5.9960040e+01 
1.1312988e+04 4.4614471e+01 -7.0525574e+01 
1.1712891e+04 4.5799849e+01 -9.8528184e+01 
1.2125977e+04 4.5052123e+01 -1.2382261e+02 
1.2553711e+04 4.5826205e+01 -1.5330165e+02 
1.2996094e+04 4.4289429e+01 1.6904226e+02 
1.3454590e+04 4.1079014e+01 1.3756421e+02 
1.3929199e+04 3.9074344e+01 1.1615804e+02 
1.4419922e+04 3.9676754e+01 9.0616656e+01 
1.4928223e+04 3.5803374e+01 6.6468041e+01 
1.5455566e+04 3.7275085e+01 5.5559974e+01 
1.6000488e+04 3.8429960e+01 2.2191459e+01 
1.6564453e+04 4.0633322e+01 -1.7325540e+01 
1.7148926e+04 3.7940199e+01 -5.3178078e+01 
1.7752441e+04 3.6235177e+01 -7.4820115e+01 
1.8379395e+04 3.9157870e+01 -9.3192719e+01 
1.9026855e+04 4.1544823e+01 -1.1081727e+02 
1.9697754e+04 4.4918040e+01 -1.6081580e+02 
1.9999512e+04 4.2044481e+01 1.7322545e+02 
