Freq[Hz]     dBSPL  Phase[Deg]
2.0507813e+01 5.3363547e+01 -1.5062606e+02 
2.1972656e+01 5.3507353e+01 -1.5610978e+02 
2.3437500e+01 5.5326995e+01 -1.4318699e+02 
2.4902344e+01 5.6278064e+01 -1.4584441e+02 
2.6367188e+01 5.7566876e+01 -1.4235896e+02 
2.7832031e+01 5.9235959e+01 -1.4393240e+02 
2.9296875e+01 6.0594323e+01 -1.4631272e+02 
3.0761719e+01 6.1759019e+01 -1.4799385e+02 
3.2226563e+01 6.2995656e+01 -1.4979260e+02 
3.3691406e+01 6.4345335e+01 -1.5169931e+02 
3.5156250e+01 6.5616055e+01 -1.5467696e+02 
3.6621094e+01 6.6836940e+01 -1.5812000e+02 
3.8085938e+01 6.8028151e+01 -1.6190265e+02 
3.9550781e+01 6.9091414e+01 -1.6596496e+02 
4.1015625e+01 7.0207418e+01 -1.7040625e+02 
4.2480469e+01 7.1232353e+01 -1.7516769e+02 
4.3945313e+01 7.2200611e+01 1.7963484e+02 
4.5410156e+01 7.3095071e+01 1.7414754e+02 
4.6875000e+01 7.3907864e+01 1.6846926e+02 
4.8339844e+01 7.4646041e+01 1.6246116e+02 
5.1269531e+01 7.5822332e+01 1.4941096e+02 
5.2734375e+01 7.6257646e+01 1.4305568e+02 
5.4199219e+01 7.6578958e+01 1.3701277e+02 
5.5664063e+01 7.6823654e+01 1.3129980e+02 
5.8593750e+01 7.7106201e+01 1.2080190e+02 
6.0058594e+01 7.7163112e+01 1.1583322e+02 
6.2988281e+01 7.7167130e+01 1.0681934e+02 
6.4453125e+01 7.7141678e+01 1.0317859e+02 
6.7382813e+01 7.7188037e+01 9.7051080e+01 
6.8847656e+01 7.7188516e+01 9.4163866e+01 
7.1777344e+01 7.7094772e+01 8.8224576e+01 
7.4707031e+01 7.7055397e+01 8.2641396e+01 
7.7636719e+01 7.7020000e+01 7.8384868e+01 
7.9101563e+01 7.6957022e+01 7.6496517e+01 
8.2031250e+01 7.6825323e+01 7.2532074e+01 
8.4960938e+01 7.6784338e+01 6.8753520e+01 
8.7890625e+01 7.6717891e+01 6.5996555e+01 
9.0820313e+01 7.6628506e+01 6.3381752e+01 
9.5214844e+01 7.6637876e+01 5.9406539e+01 
9.8144531e+01 7.6639486e+01 5.7092838e+01 
1.0107422e+02 7.6591406e+01 5.4543326e+01 
1.0546875e+02 7.6473679e+01 5.1361594e+01 
1.0839844e+02 7.6444343e+01 4.9955431e+01 
1.1279297e+02 7.6486326e+01 4.7756662e+01 
1.1718750e+02 7.6514573e+01 4.5055236e+01 
1.2011719e+02 7.6487360e+01 4.3337899e+01 
1.2451172e+02 7.6451289e+01 4.1482724e+01 
1.2890625e+02 7.6396175e+01 3.9924028e+01 
1.3330078e+02 7.6555433e+01 3.8677313e+01 
1.3916016e+02 7.6584970e+01 3.4552726e+01 
1.4355469e+02 7.6363318e+01 3.2804976e+01 
1.4794922e+02 7.6219930e+01 3.2307092e+01 
1.5380859e+02 7.6301757e+01 3.1835642e+01 
1.5966797e+02 7.6399375e+01 2.9919681e+01 
1.6552734e+02 7.6417145e+01 2.8189311e+01 
1.7138672e+02 7.6390301e+01 2.5748631e+01 
1.7724609e+02 7.6149503e+01 2.4304590e+01 
1.8310547e+02 7.5978605e+01 2.4142368e+01 
1.8896484e+02 7.6039893e+01 2.4680675e+01 
1.9628906e+02 7.6341996e+01 2.2281410e+01 
2.0361328e+02 7.6071809e+01 1.9793796e+01 
2.1093750e+02 7.5826534e+01 1.9459680e+01 
2.1826172e+02 7.5883204e+01 1.9612970e+01 
2.2558594e+02 7.5840848e+01 2.0252995e+01 
2.3291016e+02 7.6289528e+01 1.7625186e+01 
2.4169922e+02 7.5834400e+01 1.7065771e+01 
2.5048828e+02 7.6211251e+01 1.6262896e+01 
2.5927734e+02 7.6199280e+01 1.3639331e+01 
2.6806641e+02 7.5841354e+01 1.0616985e+01 
2.7685547e+02 7.5316795e+01 1.2388155e+01 
2.8710938e+02 7.5518404e+01 1.4264575e+01 
2.9736328e+02 7.5535128e+01 1.1806980e+01 
3.0761719e+02 7.5134059e+01 1.3594786e+01 
3.1933594e+02 7.4710073e+01 1.2274573e+01 
3.2958984e+02 7.4778359e+01 1.6675364e+01 
3.4130859e+02 7.4776565e+01 1.7017665e+01 
3.5302734e+02 7.4927087e+01 1.7455689e+01 
3.6621094e+02 7.4709166e+01 1.7678951e+01 
3.7939453e+02 7.5522459e+01 1.7166447e+01 
3.9257813e+02 7.5664426e+01 1.0391336e+01 
4.0576172e+02 7.4991695e+01 6.4510709e+00 
4.2041016e+02 7.5049711e+01 7.0948548e+00 
4.3505859e+02 7.5115390e+01 2.9150335e+00 
4.5117188e+02 7.4284913e+01 3.6379696e+00 
4.6582031e+02 7.4824990e+01 7.2224197e+00 
4.8339844e+02 7.4675100e+01 4.9961583e+00 
4.9951172e+02 7.4516657e+01 4.6600687e+00 
5.1708984e+02 7.4173766e+01 6.0950227e+00 
5.3613281e+02 7.3822360e+01 9.3077553e+00 
5.5517578e+02 7.4265844e+01 1.1163496e+01 
5.7421875e+02 7.4967845e+01 6.7884951e+00 
5.9472656e+02 7.4304512e+01 4.4593036e+00 
6.1523438e+02 7.4053668e+01 1.2486807e-01 
6.3720703e+02 7.3913592e+01 4.2229199e+00 
6.5917969e+02 7.4028002e+01 4.0115656e+00 
6.8261719e+02 7.3325921e+01 4.3448551e+00 
7.0751953e+02 7.3963288e+01 1.9666994e+00 
7.3242188e+02 7.3656410e+01 3.1505503e+00 
7.5732422e+02 7.3465088e+01 -3.2879183e+00 
7.8515625e+02 7.3385657e+01 4.4398562e+00 
8.1152344e+02 7.1982711e+01 -4.8160770e+00 
8.4082031e+02 7.2076489e+01 3.5575893e+00 
8.7011719e+02 7.1384118e+01 7.3361543e+00 
9.0087891e+02 7.1000381e+01 6.5373188e+00 
9.3310547e+02 7.2205858e+01 1.1015564e+01 
9.6533203e+02 7.1367824e+01 1.2162024e+01 
1.0004883e+03 7.1678122e+01 1.4984802e+01 
1.0356445e+03 7.1126546e+01 1.2387005e+01 
1.0722656e+03 7.1189963e+01 1.7265345e+01 
1.1088867e+03 7.1047853e+01 2.0873576e+01 
1.1484375e+03 7.1186338e+01 2.4608900e+01 
1.1894531e+03 7.1625300e+01 2.7969136e+01 
1.2304688e+03 7.1826986e+01 2.9721421e+01 
1.2744141e+03 7.2458871e+01 2.9350463e+01 
1.3198242e+03 7.2495451e+01 3.2640107e+01 
1.3666992e+03 7.3268237e+01 3.0052565e+01 
1.4135742e+03 7.3301598e+01 2.6843361e+01 
1.4633789e+03 7.3402094e+01 3.1340863e+01 
1.5161133e+03 7.3338150e+01 2.9979836e+01 
1.5688477e+03 7.3143823e+01 2.8147068e+01 
1.6245117e+03 7.2997092e+01 2.8235165e+01 
1.6816406e+03 7.3342987e+01 3.1287760e+01 
1.7416992e+03 7.3877614e+01 3.0261410e+01 
1.8032227e+03 7.3569507e+01 3.0767844e+01 
1.8662109e+03 7.3682213e+01 3.1600293e+01 
1.9321289e+03 7.3833678e+01 3.0814487e+01 
1.9995117e+03 7.3533457e+01 3.1126379e+01 
2.0698242e+03 7.3733123e+01 3.1729049e+01 
2.1430664e+03 7.3783170e+01 3.2219480e+01 
2.2192383e+03 7.4247303e+01 3.2555856e+01 
2.2968750e+03 7.4168270e+01 2.7919230e+01 
2.3789063e+03 7.3951318e+01 2.8116840e+01 
2.4624023e+03 7.3771903e+01 2.5967046e+01 
2.5488281e+03 7.3508199e+01 2.7640885e+01 
2.6396484e+03 7.2745834e+01 2.6653272e+01 
2.7319336e+03 7.3232006e+01 2.8068292e+01 
2.8286133e+03 7.3040898e+01 2.6412728e+01 
2.9282227e+03 7.2704257e+01 3.1580936e+01 
3.0307617e+03 7.3168132e+01 3.1833242e+01 
3.1376953e+03 7.3451687e+01 3.1858984e+01 
3.2490234e+03 7.3675574e+01 3.1958089e+01 
3.3632813e+03 7.3560538e+01 3.1611188e+01 
3.4819336e+03 7.3721796e+01 3.0970039e+01 
3.6049805e+03 7.4013469e+01 2.5760118e+01 
3.7324219e+03 7.3585716e+01 2.3796785e+01 
3.8642578e+03 7.3408859e+01 1.8529645e+01 
4.0004883e+03 7.3064070e+01 1.7168154e+01 
4.1411133e+03 7.3170944e+01 1.2863506e+01 
4.2875977e+03 7.2636244e+01 1.1621071e+01 
4.4384766e+03 7.3612903e+01 4.8616240e+00 
4.5952148e+03 7.3512508e+01 -3.9290348e+00 
4.7563477e+03 7.3151793e+01 -1.3433389e+01 
4.9248047e+03 7.2550571e+01 -1.9658688e+01 
5.0976563e+03 7.2229222e+01 -2.5569212e+01 
5.2778320e+03 7.2299811e+01 -2.7994563e+01 
5.4638672e+03 7.2735376e+01 -3.6212590e+01 
5.6572266e+03 7.2834165e+01 -4.6553690e+01 
5.8564453e+03 7.2401479e+01 -5.4837354e+01 
6.0629883e+03 7.2248987e+01 -6.4030100e+01 
6.2768555e+03 7.1610286e+01 -7.1419243e+01 
6.4980469e+03 7.1255349e+01 -7.6270845e+01 
6.7265625e+03 7.1396545e+01 -8.4250000e+01 
6.9638672e+03 7.1094145e+01 -9.4108900e+01 
7.2099609e+03 7.0572636e+01 -1.0114038e+02 
7.4648438e+03 6.9555610e+01 -1.0651581e+02 
7.7270508e+03 6.9599587e+01 -1.1117743e+02 
7.9995117e+03 6.9413144e+01 -1.1493056e+02 
8.2822266e+03 6.8923947e+01 -1.1945514e+02 
8.5737305e+03 6.9289130e+01 -1.2508824e+02 
8.8769531e+03 6.9240275e+01 -1.3273960e+02 
9.1889648e+03 6.8951217e+01 -1.3592320e+02 
9.5141602e+03 6.8935412e+01 -1.4134549e+02 
9.8496094e+03 6.9272942e+01 -1.4807761e+02 
1.0196777e+04 6.9087966e+01 -1.5367975e+02 
1.0555664e+04 6.9213283e+01 -1.6022919e+02 
1.0927734e+04 6.9427438e+01 -1.6760659e+02 
1.1312988e+04 6.9462538e+01 -1.7834438e+02 
1.1712891e+04 6.8906184e+01 1.7089210e+02 
1.2125977e+04 6.7998624e+01 1.6296234e+02 
1.2553711e+04 6.7023226e+01 1.5764140e+02 
1.2996094e+04 6.6751933e+01 1.5375000e+02 
1.3454590e+04 6.6516311e+01 1.4806190e+02 
1.3929199e+04 6.6529221e+01 1.4160020e+02 
1.4419922e+04 6.6767248e+01 1.3302423e+02 
1.4928223e+04 6.6858227e+01 1.2109686e+02 
1.5455566e+04 6.6858174e+01 1.0896749e+02 
1.6000488e+04 6.6957059e+01 9.6756848e+01 
1.6564453e+04 6.6809811e+01 8.1879099e+01 
1.7148926e+04 6.6334283e+01 6.9341344e+01 
1.7752441e+04 6.5813978e+01 5.9318654e+01 
1.8379395e+04 6.5601377e+01 5.0615358e+01 
1.9026855e+04 6.5456644e+01 4.0652471e+01 
1.9697754e+04 6.5138417e+01 3.0330201e+01 
1.9999512e+04 6.4942995e+01 2.6743035e+01 
