Freq[Hz]     dBSPL  Phase[Deg]
2.0507813e+01 5.3146795e+01 -1.4709196e+02 
2.1972656e+01 5.3272615e+01 -1.5155612e+02 
2.3437500e+01 5.5189516e+01 -1.3896700e+02 
2.4902344e+01 5.6163938e+01 -1.4170967e+02 
2.6367188e+01 5.7598319e+01 -1.3799938e+02 
2.7832031e+01 5.9241001e+01 -1.4006066e+02 
2.9296875e+01 6.0616734e+01 -1.4262087e+02 
3.0761719e+01 6.1805710e+01 -1.4442444e+02 
3.2226563e+01 6.3058657e+01 -1.4639164e+02 
3.3691406e+01 6.4419637e+01 -1.4847656e+02 
3.5156250e+01 6.5699441e+01 -1.5158469e+02 
3.6621094e+01 6.6925281e+01 -1.5515955e+02 
3.8085938e+01 6.8122070e+01 -1.5905938e+02 
3.9550781e+01 6.9191267e+01 -1.6321191e+02 
4.1015625e+01 7.0309864e+01 -1.6774518e+02 
4.2480469e+01 7.1340088e+01 -1.7259920e+02 
4.3945313e+01 7.2310276e+01 -1.7788116e+02 
4.5410156e+01 7.3206905e+01 1.7655443e+02 
4.6875000e+01 7.4019849e+01 1.7081274e+02 
4.8339844e+01 7.4759328e+01 1.6474408e+02 
5.1269531e+01 7.5937014e+01 1.5159324e+02 
5.2734375e+01 7.6372925e+01 1.4519226e+02 
5.4199219e+01 7.6695329e+01 1.3910616e+02 
5.5664063e+01 7.6939763e+01 1.3335108e+02 
5.8593750e+01 7.7221780e+01 1.2279257e+02 
6.0058594e+01 7.7279786e+01 1.1780233e+02 
6.2988281e+01 7.7283343e+01 1.0873908e+02 
6.4453125e+01 7.7259630e+01 1.0507433e+02 
6.7382813e+01 7.7304195e+01 9.8909254e+01 
6.8847656e+01 7.7305192e+01 9.6011442e+01 
7.1777344e+01 7.7212899e+01 9.0041629e+01 
7.4707031e+01 7.7175955e+01 8.4434619e+01 
7.7636719e+01 7.7139375e+01 8.0143282e+01 
7.9101563e+01 7.7075755e+01 7.8242435e+01 
8.2031250e+01 7.6942419e+01 7.4263048e+01 
8.4960938e+01 7.6901769e+01 7.0480857e+01 
8.7890625e+01 7.6835416e+01 6.7707845e+01 
9.0820313e+01 7.6744632e+01 6.5083902e+01 
9.5214844e+01 7.6753702e+01 6.1085504e+01 
9.8144531e+01 7.6750759e+01 5.8771161e+01 
1.0107422e+02 7.6703170e+01 5.6229589e+01 
1.0546875e+02 7.6581924e+01 5.3007674e+01 
1.0839844e+02 7.6545431e+01 5.1604376e+01 
1.1279297e+02 7.6580152e+01 4.9432682e+01 
1.1718750e+02 7.6600957e+01 4.6797495e+01 
1.2011719e+02 7.6581269e+01 4.5130638e+01 
1.2451172e+02 7.6540068e+01 4.3167084e+01 
1.2890625e+02 7.6470444e+01 4.1636198e+01 
1.3330078e+02 7.6612856e+01 4.0500272e+01 
1.3916016e+02 7.6654274e+01 3.6521831e+01 
1.4355469e+02 7.6439126e+01 3.4726223e+01 
1.4794922e+02 7.6285339e+01 3.4214390e+01 
1.5380859e+02 7.6363341e+01 3.3737650e+01 
1.5966797e+02 7.6439190e+01 3.1881152e+01 
1.6552734e+02 7.6448332e+01 3.0246332e+01 
1.7138672e+02 7.6422996e+01 2.7897960e+01 
1.7724609e+02 7.6187572e+01 2.6419912e+01 
1.8310547e+02 7.5996524e+01 2.6143154e+01 
1.8896484e+02 7.6012856e+01 2.6788858e+01 
1.9628906e+02 7.6311213e+01 2.4708371e+01 
2.0361328e+02 7.6040224e+01 2.2243614e+01 
2.1093750e+02 7.5786529e+01 2.1982438e+01 
2.1826172e+02 7.5816416e+01 2.2294055e+01 
2.2558594e+02 7.5758823e+01 2.3035618e+01 
2.3291016e+02 7.6224901e+01 2.0773629e+01 
2.4169922e+02 7.5763519e+01 1.9984071e+01 
2.5048828e+02 7.6119974e+01 1.9473732e+01 
2.5927734e+02 7.6106489e+01 1.6984438e+01 
2.6806641e+02 7.5776219e+01 1.3973303e+01 
2.7685547e+02 7.5204117e+01 1.5460642e+01 
2.8710938e+02 7.5361038e+01 1.7751200e+01 
2.9736328e+02 7.5394061e+01 1.5460320e+01 
3.0761719e+02 7.4954212e+01 1.6997595e+01 
3.1933594e+02 7.4459946e+01 1.5541590e+01 
3.2958984e+02 7.4420291e+01 2.0672106e+01 
3.4130859e+02 7.4393087e+01 2.1515566e+01 
3.5302734e+02 7.4539321e+01 2.2414755e+01 
3.6621094e+02 7.4265544e+01 2.2755380e+01 
3.7939453e+02 7.5060977e+01 2.3680041e+01 
3.9257813e+02 7.5326235e+01 1.7345844e+01 
4.0576172e+02 7.4740320e+01 1.3044652e+01 
4.2041016e+02 7.4691873e+01 1.3787515e+01 
4.3505859e+02 7.4834298e+01 9.8421811e+00 
4.5117188e+02 7.3922280e+01 1.0091619e+01 
4.6582031e+02 7.4339429e+01 1.4359071e+01 
4.8339844e+02 7.4165252e+01 1.2777337e+01 
4.9951172e+02 7.4135398e+01 1.2858088e+01 
5.1708984e+02 7.3710232e+01 1.3352458e+01 
5.3613281e+02 7.3171885e+01 1.6643040e+01 
5.5517578e+02 7.3433669e+01 1.9978888e+01 
5.7421875e+02 7.4012068e+01 1.7032442e+01 
5.9472656e+02 7.3575794e+01 1.6012057e+01 
6.1523438e+02 7.3336561e+01 1.1324630e+01 
6.3720703e+02 7.3128555e+01 1.6496573e+01 
6.5917969e+02 7.3084265e+01 1.6257233e+01 
6.8261719e+02 7.2294008e+01 1.7277906e+01 
7.0751953e+02 7.2963254e+01 1.7990245e+01 
7.3242188e+02 7.2764151e+01 1.9315233e+01 
7.5732422e+02 7.2682142e+01 1.4482211e+01 
7.8515625e+02 7.2562943e+01 2.1135884e+01 
8.1152344e+02 7.1267034e+01 1.2585132e+01 
8.4082031e+02 7.1276371e+01 2.1625590e+01 
8.7011719e+02 7.0490450e+01 2.5271318e+01 
9.0087891e+02 7.0036616e+01 2.5607363e+01 
9.3310547e+02 7.0823586e+01 3.3122482e+01 
9.6533203e+02 7.0242554e+01 3.4966196e+01 
1.0004883e+03 7.0587693e+01 4.0514754e+01 
1.0356445e+03 7.0216493e+01 3.8359658e+01 
1.0722656e+03 7.0060877e+01 4.4909533e+01 
1.1088867e+03 7.0340502e+01 4.8942008e+01 
1.1484375e+03 7.0259113e+01 5.3774331e+01 
1.1894531e+03 7.0838350e+01 5.7993418e+01 
1.2304688e+03 7.1173336e+01 6.1342597e+01 
1.2744141e+03 7.1817541e+01 6.2352867e+01 
1.3198242e+03 7.1891636e+01 6.6337968e+01 
1.3666992e+03 7.2898560e+01 6.6308118e+01 
1.4135742e+03 7.3082854e+01 6.3183921e+01 
1.4633789e+03 7.2946997e+01 6.8497099e+01 
1.5161133e+03 7.3194247e+01 6.8402267e+01 
1.5688477e+03 7.3336859e+01 6.8396793e+01 
1.6245117e+03 7.3580603e+01 6.7056316e+01 
1.6816406e+03 7.3369144e+01 7.2287203e+01 
1.7416992e+03 7.4383924e+01 7.3507937e+01 
1.8032227e+03 7.4170659e+01 7.2923420e+01 
1.8662109e+03 7.4605736e+01 7.3024664e+01 
1.9321289e+03 7.4777849e+01 7.1470350e+01 
1.9995117e+03 7.4371807e+01 7.0625303e+01 
2.0698242e+03 7.4692080e+01 7.2605997e+01 
2.1430664e+03 7.4525461e+01 7.1355662e+01 
2.2192383e+03 7.4840701e+01 7.3040611e+01 
2.2968750e+03 7.4947038e+01 6.9759392e+01 
2.3789063e+03 7.4887101e+01 6.9038929e+01 
2.4624023e+03 7.4801925e+01 6.6926558e+01 
2.5488281e+03 7.4471483e+01 6.5314818e+01 
2.6396484e+03 7.4193105e+01 6.4295730e+01 
2.7319336e+03 7.4195017e+01 6.2469429e+01 
2.8286133e+03 7.4050370e+01 5.7364986e+01 
2.9282227e+03 7.3785402e+01 5.5983580e+01 
3.0307617e+03 7.3379366e+01 5.4432183e+01 
3.1376953e+03 7.2720063e+01 5.0079029e+01 
3.2490234e+03 7.2647206e+01 4.6269405e+01 
3.3632813e+03 7.1706560e+01 4.2665179e+01 
3.4819336e+03 7.0332105e+01 3.7633646e+01 
3.6049805e+03 6.9989386e+01 3.6452573e+01 
3.7324219e+03 6.9483922e+01 2.6879060e+01 
3.8642578e+03 6.8573271e+01 2.2285975e+01 
4.0004883e+03 6.6673377e+01 1.5204361e+01 
4.1411133e+03 6.7200127e+01 2.1999496e+01 
4.2875977e+03 6.7479610e+01 6.9137442e+00 
4.4384766e+03 6.7269043e+01 5.3009497e+00 
4.5952148e+03 6.6145959e+01 -2.5147912e+00 
4.7563477e+03 6.7763321e+01 5.7555107e+00 
4.9248047e+03 6.8317383e+01 -7.8036443e+00 
5.0976563e+03 6.8872467e+01 -9.2260322e+00 
5.2778320e+03 6.8819631e+01 -1.4054512e+01 
5.4638672e+03 6.9595464e+01 -1.7893417e+01 
5.6572266e+03 7.0626139e+01 -2.0269729e+01 
5.8564453e+03 7.1104017e+01 -2.8628202e+01 
6.0629883e+03 7.1771786e+01 -3.8916562e+01 
6.2768555e+03 7.2002773e+01 -4.8947931e+01 
6.4980469e+03 7.1652465e+01 -5.8889071e+01 
6.7265625e+03 7.1525318e+01 -6.7310080e+01 
6.9638672e+03 7.1559133e+01 -7.3456665e+01 
7.2099609e+03 7.1423940e+01 -8.4329473e+01 
7.4648438e+03 7.0845944e+01 -9.2787173e+01 
7.7270508e+03 7.0960746e+01 -9.9369860e+01 
7.9995117e+03 7.0159938e+01 -1.1113037e+02 
8.2822266e+03 6.9154630e+01 -1.1954070e+02 
8.5737305e+03 6.8604110e+01 -1.1853267e+02 
8.8769531e+03 6.8762735e+01 -1.2376239e+02 
9.1889648e+03 6.8230060e+01 -1.3423650e+02 
9.5141602e+03 6.7464826e+01 -1.4216859e+02 
9.8496094e+03 6.6299913e+01 -1.4470323e+02 
1.0196777e+04 6.5855152e+01 -1.4528449e+02 
1.0555664e+04 6.5514765e+01 -1.5026712e+02 
1.0927734e+04 6.5091717e+01 -1.5282511e+02 
1.1312988e+04 6.5077135e+01 -1.5582004e+02 
1.1712891e+04 6.4443088e+01 -1.6382523e+02 
1.2125977e+04 6.4022111e+01 -1.6571612e+02 
1.2553711e+04 6.3158089e+01 -1.7146000e+02 
1.2996094e+04 6.2876485e+01 -1.6855726e+02 
1.3454590e+04 6.3151764e+01 -1.7344519e+02 
1.3929199e+04 6.4234892e+01 1.7902361e+02 
1.4419922e+04 6.3649792e+01 1.6538339e+02 
1.4928223e+04 6.3884590e+01 1.5125494e+02 
1.5455566e+04 6.2202813e+01 1.4176151e+02 
1.6000488e+04 6.1391518e+01 1.3796240e+02 
1.6564453e+04 6.2362607e+01 1.3182168e+02 
1.7148926e+04 6.2726735e+01 1.2203304e+02 
1.7752441e+04 6.2594607e+01 1.0869461e+02 
1.8379395e+04 6.2394857e+01 9.6850753e+01 
1.9026855e+04 6.1597988e+01 8.5067662e+01 
1.9697754e+04 6.1005822e+01 7.4882763e+01 
1.9999512e+04 6.1208145e+01 6.6318913e+01 
