Freq[Hz]     dBSPL  Phase[Deg]
2.0507813e+01 5.2180353e+01 -1.3964223e+02 
2.1972656e+01 5.2407585e+01 -1.4192150e+02 
2.3437500e+01 5.4554910e+01 -1.3289338e+02 
2.4902344e+01 5.5636373e+01 -1.3361476e+02 
2.6367188e+01 5.7231780e+01 -1.3233733e+02 
2.7832031e+01 5.8904914e+01 -1.3481564e+02 
2.9296875e+01 6.0290156e+01 -1.3836904e+02 
3.0761719e+01 6.1513539e+01 -1.4076443e+02 
3.2226563e+01 6.2783965e+01 -1.4335090e+02 
3.3691406e+01 6.4152430e+01 -1.4624197e+02 
3.5156250e+01 6.5444743e+01 -1.5003013e+02 
3.6621094e+01 6.6652473e+01 -1.5411366e+02 
3.8085938e+01 6.7851891e+01 -1.5854985e+02 
3.9550781e+01 6.8900633e+01 -1.6304758e+02 
4.1015625e+01 7.0031962e+01 -1.6812112e+02 
4.2480469e+01 7.1065529e+01 -1.7336740e+02 
4.3945313e+01 7.2026553e+01 -1.7904714e+02 
4.5410156e+01 7.2924182e+01 1.7494913e+02 
4.6875000e+01 7.3737618e+01 1.6880676e+02 
4.8339844e+01 7.4455145e+01 1.6242263e+02 
5.1269531e+01 7.5626074e+01 1.4862969e+02 
5.2734375e+01 7.6059331e+01 1.4192094e+02 
5.4199219e+01 7.6380260e+01 1.3554538e+02 
5.5664063e+01 7.6624102e+01 1.2948857e+02 
5.8593750e+01 7.6899796e+01 1.1832216e+02 
6.0058594e+01 7.6947738e+01 1.1304115e+02 
6.2988281e+01 7.6944830e+01 1.0344215e+02 
6.4453125e+01 7.6909884e+01 9.9589786e+01 
6.7382813e+01 7.6962000e+01 9.2982676e+01 
6.8847656e+01 7.6964236e+01 8.9821868e+01 
7.1777344e+01 7.6871207e+01 8.3354442e+01 
7.4707031e+01 7.6823689e+01 7.7232759e+01 
7.7636719e+01 7.6788247e+01 7.2544296e+01 
7.9101563e+01 7.6726639e+01 7.0418547e+01 
8.2031250e+01 7.6595206e+01 6.5925425e+01 
8.4960938e+01 7.6544309e+01 6.1633832e+01 
8.7890625e+01 7.6462430e+01 5.8448224e+01 
9.0820313e+01 7.6363851e+01 5.5432477e+01 
9.5214844e+01 7.6368691e+01 5.0870344e+01 
9.8144531e+01 7.6362861e+01 4.8193238e+01 
1.0107422e+02 7.6313386e+01 4.5319350e+01 
1.0546875e+02 7.6219272e+01 4.1511980e+01 
1.0839844e+02 7.6188426e+01 3.9567905e+01 
1.1279297e+02 7.6193334e+01 3.6828660e+01 
1.1718750e+02 7.6236613e+01 3.3420148e+01 
1.2011719e+02 7.6180735e+01 3.1358248e+01 
1.2451172e+02 7.6129373e+01 2.8933059e+01 
1.2890625e+02 7.6059267e+01 2.6957745e+01 
1.3330078e+02 7.6187506e+01 2.5104164e+01 
1.3916016e+02 7.6233621e+01 2.0729885e+01 
1.4355469e+02 7.6040836e+01 1.8247806e+01 
1.4794922e+02 7.5874002e+01 1.6970849e+01 
1.5380859e+02 7.5876300e+01 1.6117492e+01 
1.5966797e+02 7.6039163e+01 1.3598149e+01 
1.6552734e+02 7.5997983e+01 1.1078102e+01 
1.7138672e+02 7.6007131e+01 8.3561566e+00 
1.7724609e+02 7.5759347e+01 5.9670973e+00 
1.8310547e+02 7.5603254e+01 5.2692089e+00 
1.8896484e+02 7.5625281e+01 4.7955418e+00 
1.9628906e+02 7.5968522e+01 1.9680272e+00 
2.0361328e+02 7.5662709e+01 -1.7022711e+00 
2.1093750e+02 7.5383066e+01 -2.9713512e+00 
2.1826172e+02 7.5444306e+01 -3.4629069e+00 
2.2558594e+02 7.5303031e+01 -3.8638031e+00 
2.3291016e+02 7.5804546e+01 -6.5967093e+00 
2.4169922e+02 7.5262625e+01 -8.7129647e+00 
2.5048828e+02 7.5661714e+01 -9.0789439e+00 
2.5927734e+02 7.5758407e+01 -1.3182650e+01 
2.6806641e+02 7.5396363e+01 -1.7969991e+01 
2.7685547e+02 7.4693010e+01 -1.6260539e+01 
2.8710938e+02 7.5057431e+01 -1.4968702e+01 
2.9736328e+02 7.5320808e+01 -1.9761596e+01 
3.0761719e+02 7.4533228e+01 -1.9961947e+01 
3.1933594e+02 7.4208184e+01 -2.1978752e+01 
3.2958984e+02 7.4206062e+01 -1.9009893e+01 
3.4130859e+02 7.4091151e+01 -2.0830980e+01 
3.5302734e+02 7.3939405e+01 -2.0680031e+01 
3.6621094e+02 7.3474097e+01 -2.0142035e+01 
3.7939453e+02 7.4705636e+01 -1.9483495e+01 
3.9257813e+02 7.4792517e+01 -2.8174341e+01 
4.0576172e+02 7.4275969e+01 -3.3467873e+01 
4.2041016e+02 7.4211065e+01 -3.4375850e+01 
4.3505859e+02 7.4390465e+01 -3.7061938e+01 
4.5117188e+02 7.3810006e+01 -4.0456192e+01 
4.6582031e+02 7.4427150e+01 -3.5216116e+01 
4.8339844e+02 7.4490456e+01 -4.2260573e+01 
4.9951172e+02 7.4280399e+01 -4.5384082e+01 
5.1708984e+02 7.3866088e+01 -4.3174741e+01 
5.3613281e+02 7.3515122e+01 -4.1959260e+01 
5.5517578e+02 7.4584198e+01 -4.3622950e+01 
5.7421875e+02 7.5151556e+01 -4.9222360e+01 
5.9472656e+02 7.4588438e+01 -5.7056982e+01 
6.1523438e+02 7.4253646e+01 -6.1814918e+01 
6.3720703e+02 7.3973123e+01 -6.2373251e+01 
6.5917969e+02 7.4009680e+01 -6.4652932e+01 
6.8261719e+02 7.3511971e+01 -6.5050272e+01 
7.0751953e+02 7.4053357e+01 -7.0551272e+01 
7.3242188e+02 7.3799285e+01 -6.9091522e+01 
7.5732422e+02 7.3628371e+01 -7.8400659e+01 
7.8515625e+02 7.3547166e+01 -7.2863615e+01 
8.1152344e+02 7.3625036e+01 -8.1096037e+01 
8.4082031e+02 7.3441214e+01 -8.0854260e+01 
8.7011719e+02 7.3831043e+01 -8.3138491e+01 
9.0087891e+02 7.4002842e+01 -9.0041118e+01 
9.3310547e+02 7.4267353e+01 -9.2547044e+01 
9.6533203e+02 7.4126467e+01 -9.8785443e+01 
1.0004883e+03 7.3645431e+01 -1.0368580e+02 
1.0356445e+03 7.3609933e+01 -1.0812003e+02 
1.0722656e+03 7.3581803e+01 -1.0903272e+02 
1.1088867e+03 7.4004377e+01 -1.1314737e+02 
1.1484375e+03 7.4102754e+01 -1.1928973e+02 
1.1894531e+03 7.3945742e+01 -1.2486889e+02 
1.2304688e+03 7.3931704e+01 -1.3204109e+02 
1.2744141e+03 7.4016400e+01 -1.3726499e+02 
1.3198242e+03 7.3903316e+01 -1.4278896e+02 
1.3666992e+03 7.3732225e+01 -1.4926600e+02 
1.4135742e+03 7.4119497e+01 -1.5350783e+02 
1.4633789e+03 7.4299148e+01 -1.6181380e+02 
1.5161133e+03 7.3776867e+01 -1.7141320e+02 
1.5688477e+03 7.3035293e+01 -1.7645715e+02 
1.6245117e+03 7.2988496e+01 1.7919660e+02 
1.6816406e+03 7.3361753e+01 1.7150004e+02 
1.7416992e+03 7.3417170e+01 1.6230431e+02 
1.8032227e+03 7.2955885e+01 1.5505414e+02 
1.8662109e+03 7.2485296e+01 1.5094893e+02 
1.9321289e+03 7.3002208e+01 1.4702549e+02 
1.9995117e+03 7.3201513e+01 1.3715264e+02 
2.0698242e+03 7.2630092e+01 1.2918924e+02 
2.1430664e+03 7.2044753e+01 1.2727518e+02 
2.2192383e+03 7.2846857e+01 1.2603084e+02 
2.2968750e+03 7.3865814e+01 1.1560794e+02 
2.3789063e+03 7.3627920e+01 1.0712120e+02 
2.4624023e+03 7.3834597e+01 1.0153134e+02 
2.5488281e+03 7.4358237e+01 9.1770737e+01 
2.6396484e+03 7.4109801e+01 8.5380389e+01 
2.7319336e+03 7.4949609e+01 7.7652859e+01 
2.8286133e+03 7.5601239e+01 6.8312891e+01 
2.9282227e+03 7.4851040e+01 5.7713540e+01 
3.0307617e+03 7.5125297e+01 5.4887657e+01 
3.1376953e+03 7.5541414e+01 4.4127106e+01 
3.2490234e+03 7.5091770e+01 3.7651100e+01 
3.3632813e+03 7.5136220e+01 3.1589982e+01 
3.4819336e+03 7.5022556e+01 2.5530157e+01 
3.6049805e+03 7.5250989e+01 1.8090250e+01 
3.7324219e+03 7.4427964e+01 8.1763391e+00 
3.8642578e+03 7.4682573e+01 5.2554443e+00 
4.0004883e+03 7.3718405e+01 -2.9884976e+00 
4.1411133e+03 7.4355981e+01 -7.4061734e+00 
4.2875977e+03 7.3259542e+01 -1.6357534e+01 
4.4384766e+03 7.3535836e+01 -2.2886991e+01 
4.5952148e+03 7.2199108e+01 -2.6118976e+01 
4.7563477e+03 7.2479349e+01 -3.0674337e+01 
4.9248047e+03 7.2462029e+01 -3.2559814e+01 
5.0976563e+03 7.2466837e+01 -3.7600981e+01 
5.2778320e+03 7.3004356e+01 -4.6782434e+01 
5.4638672e+03 7.2868359e+01 -5.0605621e+01 
5.6572266e+03 7.2263062e+01 -6.1854366e+01 
5.8564453e+03 7.2009331e+01 -6.8289396e+01 
6.0629883e+03 7.1610562e+01 -7.3723781e+01 
6.2768555e+03 7.0911890e+01 -7.5261318e+01 
6.4980469e+03 7.0641660e+01 -8.2856740e+01 
6.7265625e+03 7.1031037e+01 -8.5811259e+01 
6.9638672e+03 7.0612314e+01 -9.0718273e+01 
7.2099609e+03 7.0787945e+01 -9.9232117e+01 
7.4648438e+03 7.0786762e+01 -1.0198011e+02 
7.7270508e+03 7.0629825e+01 -1.0796884e+02 
7.9995117e+03 7.0621651e+01 -1.1743421e+02 
8.2822266e+03 7.0815642e+01 -1.2327316e+02 
8.5737305e+03 7.0685206e+01 -1.2941532e+02 
8.8769531e+03 7.0685569e+01 -1.3742857e+02 
9.1889648e+03 7.0643023e+01 -1.4612745e+02 
9.5141602e+03 7.0576766e+01 -1.5402145e+02 
9.8496094e+03 7.0263390e+01 -1.6118611e+02 
1.0196777e+04 7.0083812e+01 -1.6725426e+02 
1.0555664e+04 6.9925783e+01 -1.7534432e+02 
1.0927734e+04 6.9429322e+01 1.7678086e+02 
1.1312988e+04 6.8899588e+01 1.7068529e+02 
1.1712891e+04 6.8394199e+01 1.6534049e+02 
1.2125977e+04 6.8164169e+01 1.6056460e+02 
1.2553711e+04 6.7830166e+01 1.5530502e+02 
1.2996094e+04 6.7970102e+01 1.5079261e+02 
1.3454590e+04 6.8295448e+01 1.4271295e+02 
1.3929199e+04 6.8526972e+01 1.3242925e+02 
1.4419922e+04 6.8539195e+01 1.2113048e+02 
1.4928223e+04 6.8593039e+01 1.0861252e+02 
1.5455566e+04 6.8472197e+01 9.5908502e+01 
1.6000488e+04 6.8490221e+01 8.1050005e+01 
1.6564453e+04 6.7856531e+01 6.9226001e+01 
1.7148926e+04 6.7786397e+01 5.8959795e+01 
1.7752441e+04 6.7566339e+01 5.0032705e+01 
1.8379395e+04 6.7881569e+01 4.0810604e+01 
1.9026855e+04 6.8554617e+01 2.8563813e+01 
1.9697754e+04 6.8336596e+01 7.4798244e+00 
1.9999512e+04 6.7446764e+01 5.1628482e+00 
