Freq[Hz]     dBSPL  Phase[Deg]
2.0507813e+01 5.1526915e+01 -1.0841870e+02 
2.1972656e+01 5.2097711e+01 -1.0713293e+02 
2.3437500e+01 5.4855923e+01 -1.0361545e+02 
2.4902344e+01 5.6107303e+01 -1.0606184e+02 
2.6367188e+01 5.7965607e+01 -1.0868980e+02 
2.7832031e+01 5.9368139e+01 -1.1373386e+02 
2.9296875e+01 6.0681460e+01 -1.1876533e+02 
3.0761719e+01 6.1919212e+01 -1.2261164e+02 
3.2226563e+01 6.3164319e+01 -1.2679228e+02 
3.3691406e+01 6.4500836e+01 -1.3141200e+02 
3.5156250e+01 6.5737619e+01 -1.3668930e+02 
3.6621094e+01 6.6895384e+01 -1.4200545e+02 
3.8085938e+01 6.8040669e+01 -1.4762704e+02 
3.9550781e+01 6.9058353e+01 -1.5310175e+02 
4.1015625e+01 7.0154955e+01 -1.5931872e+02 
4.2480469e+01 7.1142409e+01 -1.6559349e+02 
4.3945313e+01 7.2065245e+01 -1.7208566e+02 
4.5410156e+01 7.2925194e+01 -1.7883899e+02 
4.6875000e+01 7.3712805e+01 1.7436340e+02 
4.8339844e+01 7.4430465e+01 1.6720882e+02 
5.1269531e+01 7.5558610e+01 1.5202440e+02 
5.2734375e+01 7.5976781e+01 1.4465446e+02 
5.4199219e+01 7.6284992e+01 1.3765504e+02 
5.5664063e+01 7.6518865e+01 1.3099413e+02 
5.8593750e+01 7.6769670e+01 1.1865334e+02 
6.0058594e+01 7.6801922e+01 1.1278968e+02 
6.2988281e+01 7.6770965e+01 1.0226762e+02 
6.4453125e+01 7.6733019e+01 9.7948005e+01 
6.7382813e+01 7.6771608e+01 9.0375612e+01 
6.8847656e+01 7.6764955e+01 8.6760164e+01 
7.1777344e+01 7.6664740e+01 7.9370747e+01 
7.4707031e+01 7.6601534e+01 7.2491999e+01 
7.7636719e+01 7.6563019e+01 6.6989769e+01 
7.9101563e+01 7.6496027e+01 6.4479123e+01 
8.2031250e+01 7.6360872e+01 5.9180806e+01 
8.4960938e+01 7.6302693e+01 5.4122058e+01 
8.7890625e+01 7.6208248e+01 5.0208228e+01 
9.0820313e+01 7.6100824e+01 4.6445992e+01 
9.5214844e+01 7.6067014e+01 4.0942265e+01 
9.8144531e+01 7.6058940e+01 3.7776837e+01 
1.0107422e+02 7.6014490e+01 3.4354591e+01 
1.0546875e+02 7.5955608e+01 2.9490946e+01 
1.0839844e+02 7.5910875e+01 2.6844323e+01 
1.1279297e+02 7.5917991e+01 2.3047449e+01 
1.1718750e+02 7.5923239e+01 1.8694623e+01 
1.2011719e+02 7.5863012e+01 1.5907419e+01 
1.2451172e+02 7.5764688e+01 1.2567084e+01 
1.2890625e+02 7.5631529e+01 9.5781660e+00 
1.3330078e+02 7.5702389e+01 7.3960115e+00 
1.3916016e+02 7.5769528e+01 2.3200820e+00 
1.4355469e+02 7.5621695e+01 -1.0230950e+00 
1.4794922e+02 7.5463414e+01 -3.5426123e+00 
1.5380859e+02 7.5324739e+01 -5.5971703e+00 
1.5966797e+02 7.5475148e+01 -8.7195519e+00 
1.6552734e+02 7.5395311e+01 -1.1905327e+01 
1.7138672e+02 7.5499907e+01 -1.5500873e+01 
1.7724609e+02 7.5205291e+01 -1.9447092e+01 
1.8310547e+02 7.4975508e+01 -2.0720242e+01 
1.8896484e+02 7.5110571e+01 -2.1871907e+01 
1.9628906e+02 7.5395889e+01 -2.6580252e+01 
2.0361328e+02 7.5119685e+01 -3.1287446e+01 
2.1093750e+02 7.4858201e+01 -3.4492773e+01 
2.1826172e+02 7.4837390e+01 -3.6321502e+01 
2.2558594e+02 7.4590679e+01 -3.8441121e+01 
2.3291016e+02 7.5092636e+01 -4.1484800e+01 
2.4169922e+02 7.4500307e+01 -4.6331331e+01 
2.5048828e+02 7.4630518e+01 -4.7626529e+01 
2.5927734e+02 7.4712489e+01 -5.1104694e+01 
2.6806641e+02 7.4629232e+01 -5.7036090e+01 
2.7685547e+02 7.3914962e+01 -5.8406652e+01 
2.8710938e+02 7.4184754e+01 -5.7890169e+01 
2.9736328e+02 7.4543249e+01 -6.4417398e+01 
3.0761719e+02 7.3723661e+01 -6.8239624e+01 
3.1933594e+02 7.3672336e+01 -7.2225177e+01 
3.2958984e+02 7.3048093e+01 -7.2920480e+01 
3.4130859e+02 7.3027090e+01 -7.6505471e+01 
3.5302734e+02 7.2487173e+01 -8.0028182e+01 
3.6621094e+02 7.1525670e+01 -8.3405368e+01 
3.7939453e+02 7.1811317e+01 -7.8567986e+01 
3.9257813e+02 7.2194008e+01 -8.3954100e+01 
4.0576172e+02 7.2401432e+01 -9.1377014e+01 
4.2041016e+02 7.1958406e+01 -9.6367757e+01 
4.3505859e+02 7.2294495e+01 -1.0010214e+02 
4.5117188e+02 7.1722103e+01 -1.0629486e+02 
4.6582031e+02 7.1698253e+01 -1.0431370e+02 
4.8339844e+02 7.1687098e+01 -1.0945452e+02 
4.9951172e+02 7.2143807e+01 -1.1178864e+02 
5.1708984e+02 7.1791169e+01 -1.1735219e+02 
5.3613281e+02 7.1447867e+01 -1.2091838e+02 
5.5517578e+02 7.1335535e+01 -1.2467985e+02 
5.7421875e+02 7.1363365e+01 -1.2982085e+02 
5.9472656e+02 7.1300946e+01 -1.3510509e+02 
6.1523438e+02 7.1437530e+01 -1.4181293e+02 
6.3720703e+02 7.0311835e+01 -1.4793555e+02 
6.5917969e+02 7.0687496e+01 -1.4803794e+02 
6.8261719e+02 7.0748693e+01 -1.5238155e+02 
7.0751953e+02 7.0886874e+01 -1.6188446e+02 
7.3242188e+02 6.9872345e+01 -1.6150549e+02 
7.5732422e+02 7.0821139e+01 -1.6931458e+02 
7.8515625e+02 7.0317434e+01 -1.7435945e+02 
8.1152344e+02 7.0484401e+01 1.7987355e+02 
8.4082031e+02 7.0456109e+01 1.7143205e+02 
8.7011719e+02 6.9024311e+01 1.6678095e+02 
9.0087891e+02 6.9288769e+01 1.6396874e+02 
9.3310547e+02 6.9350789e+01 1.5855257e+02 
9.6533203e+02 6.9045627e+01 1.5711604e+02 
1.0004883e+03 6.9643052e+01 1.5371455e+02 
1.0356445e+03 7.0419936e+01 1.4709682e+02 
1.0722656e+03 7.0753013e+01 1.3684120e+02 
1.1088867e+03 7.0774520e+01 1.2488313e+02 
1.1484375e+03 6.9695453e+01 1.1779230e+02 
1.1894531e+03 6.9461917e+01 1.0869145e+02 
1.2304688e+03 6.9462182e+01 1.0918201e+02 
1.2744141e+03 6.9149796e+01 9.6446134e+01 
1.3198242e+03 6.9585314e+01 9.4082431e+01 
1.3666992e+03 6.9779044e+01 8.2618873e+01 
1.4135742e+03 6.9446870e+01 6.7805058e+01 
1.4633789e+03 6.8383999e+01 5.9780460e+01 
1.5161133e+03 6.8094392e+01 5.0891812e+01 
1.5688477e+03 6.7294153e+01 3.8118334e+01 
1.6245117e+03 6.7252328e+01 3.5596617e+01 
1.6816406e+03 6.7637522e+01 1.3182331e+01 
1.7416992e+03 6.4882196e+01 -8.3758472e+00 
1.8032227e+03 6.4351717e+01 -1.3801804e+01 
1.8662109e+03 6.4958909e+01 -4.0799240e+01 
1.9321289e+03 6.3439069e+01 -7.6907362e+01 
1.9995117e+03 6.1000346e+01 -1.0563211e+02 
2.0698242e+03 6.3854248e+01 -1.2068870e+02 
2.1430664e+03 6.5651737e+01 -1.6185372e+02 
2.2192383e+03 6.5147332e+01 1.7785363e+02 
2.2968750e+03 6.7349595e+01 1.6527561e+02 
2.3789063e+03 6.9449055e+01 1.4672263e+02 
2.4624023e+03 7.0359704e+01 1.3119980e+02 
2.5488281e+03 7.0490301e+01 1.1529080e+02 
2.6396484e+03 7.0670469e+01 1.0426368e+02 
2.7319336e+03 7.2510963e+01 9.3944675e+01 
2.8286133e+03 7.2486555e+01 7.8099989e+01 
2.9282227e+03 7.2917963e+01 6.4354674e+01 
3.0307617e+03 7.2434458e+01 5.5994204e+01 
3.1376953e+03 7.2249507e+01 4.2665671e+01 
3.2490234e+03 7.1721775e+01 3.4462691e+01 
3.3632813e+03 7.0422646e+01 2.1735386e+01 
3.4819336e+03 6.8050692e+01 2.0513708e+01 
3.6049805e+03 6.6983579e+01 2.8111881e+01 
3.7324219e+03 6.7524304e+01 3.4752864e+01 
3.8642578e+03 6.8030956e+01 3.6409640e+01 
4.0004883e+03 6.8966350e+01 3.0536443e+01 
4.1411133e+03 6.9485058e+01 2.2619284e+01 
4.2875977e+03 6.8316130e+01 2.3295007e+01 
4.4384766e+03 6.9316740e+01 1.8137180e+01 
4.5952148e+03 7.0485662e+01 1.9303861e+01 
4.7563477e+03 7.0589884e+01 1.6996431e+00 
4.9248047e+03 7.0324532e+01 -4.8279263e+00 
5.0976563e+03 6.9746918e+01 -1.0611425e+01 
5.2778320e+03 6.9189991e+01 -1.4759195e+01 
5.4638672e+03 6.8736286e+01 -1.7370014e+01 
5.6572266e+03 6.8761165e+01 -2.1863884e+01 
5.8564453e+03 6.8706578e+01 -2.4881490e+01 
6.0629883e+03 6.8572860e+01 -2.6484994e+01 
6.2768555e+03 6.9055350e+01 -3.2484808e+01 
6.4980469e+03 6.9184191e+01 -4.1476101e+01 
6.7265625e+03 6.8532957e+01 -5.0237028e+01 
6.9638672e+03 6.7937351e+01 -5.2784233e+01 
7.2099609e+03 6.7527181e+01 -5.9486907e+01 
7.4648438e+03 6.6794624e+01 -6.1907058e+01 
7.7270508e+03 6.7428080e+01 -6.4314574e+01 
7.9995117e+03 6.7074584e+01 -7.1584901e+01 
8.2822266e+03 6.7125930e+01 -7.4722178e+01 
8.5737305e+03 6.7133682e+01 -8.3657597e+01 
8.8769531e+03 6.6212072e+01 -9.2160640e+01 
9.1889648e+03 6.5514747e+01 -9.5389298e+01 
9.5141602e+03 6.5033615e+01 -9.9193659e+01 
9.8496094e+03 6.4667233e+01 -9.9531573e+01 
1.0196777e+04 6.4826613e+01 -1.0453673e+02 
1.0555664e+04 6.4279768e+01 -1.1254142e+02 
1.0927734e+04 6.3053976e+01 -1.1605390e+02 
1.1312988e+04 6.2096513e+01 -1.1549706e+02 
1.1712891e+04 6.1721843e+01 -1.1315882e+02 
1.2125977e+04 6.1724578e+01 -1.1435485e+02 
1.2553711e+04 6.1492944e+01 -1.1616276e+02 
1.2996094e+04 6.1555622e+01 -1.1737613e+02 
1.3454590e+04 6.1916278e+01 -1.2199766e+02 
1.3929199e+04 6.2115901e+01 -1.2865530e+02 
1.4419922e+04 6.2345844e+01 -1.3771865e+02 
1.4928223e+04 6.2149605e+01 -1.5237895e+02 
1.5455566e+04 6.0705829e+01 -1.6143900e+02 
1.6000488e+04 6.0440380e+01 -1.6208678e+02 
1.6564453e+04 6.1333074e+01 -1.7254852e+02 
1.7148926e+04 6.0971118e+01 1.7332975e+02 
1.7752441e+04 5.9513174e+01 1.6403975e+02 
1.8379395e+04 5.8881916e+01 1.6118894e+02 
1.9026855e+04 5.8739388e+01 1.5286898e+02 
1.9697754e+04 5.7936762e+01 1.4319188e+02 
1.9999512e+04 5.6245984e+01 1.4362901e+02 
