Param_Coord_x1 = 1
Param_Coord_x2 = 120
Param_Coord_x3 = 0
Param_Coord_Type = Spherical
Param_Coord_AngularFormat = degree
Param_Coord_Front = '0,0'
Param_Coord_Top = '90,0'
Data_Domain=Frequency
Data_Phase_AngularFormat=degree
Data_Format = LeveldB_Phase
Data_LevelType=SoundPressure

Curve=[
2.0507813e+01 3.1976040e+01 -5.1239309e+01
2.1972656e+01 4.5048731e+01 -1.8398354e+01
2.3437500e+01 4.9736782e+01 -4.6594296e+01
2.4902344e+01 5.1230892e+01 -7.3017746e+01
2.6367188e+01 5.2061975e+01 -7.2533941e+01
2.7832031e+01 5.4711117e+01 -7.7334014e+01
2.9296875e+01 5.7042860e+01 -8.6458163e+01
3.0761719e+01 5.8712279e+01 -9.5572867e+01
3.2226563e+01 6.0447302e+01 -1.0448637e+02
3.3691406e+01 6.1837174e+01 -1.1276888e+02
3.5156250e+01 6.3315744e+01 -1.2062362e+02
3.6621094e+01 6.4465523e+01 -1.3020494e+02
3.8085938e+01 6.5341169e+01 -1.3829319e+02
3.9550781e+01 6.6113574e+01 -1.4553656e+02
4.1015625e+01 6.6831718e+01 -1.5234453e+02
4.2480469e+01 6.7546586e+01 -1.5825235e+02
4.3945313e+01 6.8201129e+01 -1.6424498e+02
4.5410156e+01 6.8778849e+01 -1.6986074e+02
4.6875000e+01 6.9280474e+01 -1.7525645e+02
4.8339844e+01 6.9732403e+01 1.7988557e+02
5.1269531e+01 7.0599926e+01 1.7121167e+02
5.2734375e+01 7.1029940e+01 1.6710960e+02
5.4199219e+01 7.1439208e+01 1.6310580e+02
5.5664063e+01 7.1710334e+01 1.5916191e+02
5.8593750e+01 7.2358214e+01 1.5228773e+02
6.0058594e+01 7.2724280e+01 1.4902119e+02
6.2988281e+01 7.3336240e+01 1.4303692e+02
6.4453125e+01 7.3632309e+01 1.4024098e+02
6.7382813e+01 7.4178495e+01 1.3453271e+02
6.8847656e+01 7.4412190e+01 1.3142894e+02
7.1777344e+01 7.4975714e+01 1.2559425e+02
7.4707031e+01 7.5493223e+01 1.2073323e+02
7.7636719e+01 7.5861067e+01 1.1581305e+02
7.9101563e+01 7.6060129e+01 1.1274918e+02
8.2031250e+01 7.6556967e+01 1.0720072e+02
8.4960938e+01 7.6977119e+01 1.0270386e+02
8.7890625e+01 7.7225380e+01 9.7540629e+01
9.0820313e+01 7.7535658e+01 9.2028541e+01
9.5214844e+01 7.7983851e+01 8.5449670e+01
9.8144531e+01 7.8174409e+01 8.0516903e+01
1.0107422e+02 7.8397200e+01 7.5586301e+01
1.0546875e+02 7.8671838e+01 6.8882628e+01
1.0839844e+02 7.8783995e+01 6.4429376e+01
1.1279297e+02 7.8983919e+01 5.7676226e+01
1.1718750e+02 7.9173981e+01 5.1556522e+01
1.2011719e+02 7.9191332e+01 4.7015336e+01
1.2451172e+02 7.9209210e+01 4.1836049e+01
1.2890625e+02 7.9223220e+01 3.6496392e+01
1.3330078e+02 7.9217219e+01 3.1888960e+01
1.3916016e+02 7.9260441e+01 2.5699871e+01
1.4355469e+02 7.9232679e+01 2.0943923e+01
1.4794922e+02 7.9137457e+01 1.6523659e+01
1.5380859e+02 7.8991246e+01 1.1630439e+01
1.5966797e+02 7.8933806e+01 6.8588991e+00
1.6552734e+02 7.8773964e+01 2.1831222e+00
1.7138672e+02 7.8725406e+01 -1.3614727e+00
1.7724609e+02 7.8681664e+01 -6.2587508e+00
1.8310547e+02 7.8473137e+01 -1.0552050e+01
1.8896484e+02 7.8245999e+01 -1.3600766e+01
1.9628906e+02 7.8260301e+01 -1.7501435e+01
2.0361328e+02 7.8125328e+01 -2.2725996e+01
2.1093750e+02 7.7856807e+01 -2.7043078e+01
2.1826172e+02 7.7585284e+01 -3.0805426e+01
2.2558594e+02 7.7231805e+01 -3.4016600e+01
2.3291016e+02 7.7132944e+01 -3.5248995e+01
2.4169922e+02 7.7096080e+01 -3.9984570e+01
2.5048828e+02 7.6851332e+01 -4.3716901e+01
2.5927734e+02 7.6669344e+01 -4.6528486e+01
2.6806641e+02 7.6587675e+01 -5.0099248e+01
2.7685547e+02 7.6374933e+01 -5.3889582e+01
2.8710938e+02 7.5988185e+01 -5.6892150e+01
2.9736328e+02 7.5916824e+01 -5.9054915e+01
3.0761719e+02 7.5756263e+01 -6.2017920e+01
3.1933594e+02 7.5854629e+01 -6.4929463e+01
3.2958984e+02 7.5756911e+01 -6.8884164e+01
3.4130859e+02 7.5795002e+01 -7.2672005e+01
3.5302734e+02 7.5605535e+01 -7.7831402e+01
3.6621094e+02 7.5234683e+01 -8.1764613e+01
3.7939453e+02 7.4947683e+01 -8.4271360e+01
3.9257813e+02 7.4710398e+01 -8.7228942e+01
4.0576172e+02 7.4775874e+01 -8.8002416e+01
4.2041016e+02 7.4868197e+01 -9.4199854e+01
4.3505859e+02 7.4319792e+01 -9.7193682e+01
4.5117188e+02 7.4540809e+01 -9.9424640e+01
4.6582031e+02 7.4249495e+01 -1.0418342e+02
4.8339844e+02 7.4628943e+01 -1.0652928e+02
4.9951172e+02 7.4435908e+01 -1.1179244e+02
5.1708984e+02 7.5065183e+01 -1.1607506e+02
5.3613281e+02 7.5071910e+01 -1.2834194e+02
5.5517578e+02 7.4384605e+01 -1.3600033e+02
5.7421875e+02 7.3670980e+01 -1.4105935e+02
5.9472656e+02 7.3090614e+01 -1.4651621e+02
6.1523438e+02 7.2551739e+01 -1.5136928e+02
6.3720703e+02 7.2155466e+01 -1.5404325e+02
6.5917969e+02 7.1941396e+01 -1.5772275e+02
6.8261719e+02 7.1440837e+01 -1.6487835e+02
7.0751953e+02 7.0814426e+01 -1.6858225e+02
7.3242188e+02 7.0234259e+01 -1.7370132e+02
7.5732422e+02 6.9369063e+01 -1.7021647e+02
7.8515625e+02 7.0115108e+01 -1.7282093e+02
8.1152344e+02 7.0445175e+01 -1.7603798e+02
8.4082031e+02 7.1192931e+01 -1.7773035e+02
8.7011719e+02 7.0491888e+01 1.6841968e+02
9.0087891e+02 6.9626677e+01 1.6825606e+02
9.3310547e+02 6.8760820e+01 1.7146569e+02
9.6533203e+02 6.9899956e+01 1.7158384e+02
1.0004883e+03 7.1328880e+01 1.5969360e+02
1.0356445e+03 7.1304628e+01 1.4622488e+02
1.0722656e+03 6.9999666e+01 1.3836945e+02
1.1088867e+03 7.0546797e+01 1.4260611e+02
1.1484375e+03 7.2124228e+01 1.2699177e+02
1.1894531e+03 7.2228812e+01 1.2044575e+02
1.2304688e+03 7.2769015e+01 1.0258636e+02
1.2744141e+03 7.3072702e+01 8.8400174e+01
1.3198242e+03 7.1688909e+01 7.6336390e+01
1.3666992e+03 7.2001231e+01 5.7131982e+01
1.4135742e+03 7.0117003e+01 4.2761441e+01
1.4633789e+03 6.8311064e+01 3.9787254e+01
1.5161133e+03 6.9032360e+01 4.1820300e+01
1.5688477e+03 7.0528710e+01 2.9023531e+01
1.6245117e+03 7.1653069e+01 8.3899422e+00
1.6816406e+03 7.0510897e+01 -1.9447488e+01
1.7416992e+03 6.6582601e+01 -5.3138344e+01
1.8032227e+03 6.2259290e+01 -3.4613340e+01
1.8662109e+03 6.6190419e+01 -2.2011076e+01
1.9321289e+03 6.8979775e+01 -3.7103475e+01
1.9995117e+03 7.0196348e+01 -7.2356931e+01
2.0698242e+03 6.9305240e+01 -9.5848187e+01
2.1430664e+03 6.9507555e+01 -1.2719059e+02
2.2192383e+03 6.7834969e+01 -1.5394762e+02
2.2968750e+03 6.4706594e+01 -1.7408760e+02
2.3789063e+03 6.6068634e+01 -1.6868677e+02
2.4624023e+03 6.5348263e+01 1.7852317e+02
2.5488281e+03 6.7463910e+01 1.6172014e+02
2.6396484e+03 6.5485753e+01 1.3985307e+02
2.7319336e+03 6.5067011e+01 1.4185451e+02
2.8286133e+03 6.9123775e+01 1.2948198e+02
2.9282227e+03 6.5009798e+01 9.2439676e+01
3.0307617e+03 6.1241539e+01 9.3696623e+01
3.1376953e+03 6.3914250e+01 7.5360660e+01
3.2490234e+03 6.3443504e+01 6.3333273e+01
3.3632813e+03 6.0090296e+01 4.1777555e+01
3.4819336e+03 6.3036323e+01 4.7310443e+01
3.6049805e+03 6.1295841e+01 2.3478873e+01
3.7324219e+03 5.7310499e+01 6.5474360e+00
3.8642578e+03 5.8723495e+01 -1.4073679e+01
4.0004883e+03 5.3177362e+01 -3.6113044e+01
4.1411133e+03 4.5041607e+01 -9.1071394e+01
4.2875977e+03 4.3196557e+01 9.5544731e+01
4.4384766e+03 4.9615422e+01 1.3142048e+02
4.5952148e+03 5.1812554e+01 8.0425914e+01
4.7563477e+03 5.4781322e+01 7.7304852e+01
4.9248047e+03 5.4108895e+01 5.6501101e+01
5.0976563e+03 5.4942155e+01 4.4807638e+01
5.2778320e+03 5.2861563e+01 3.2285729e+01
5.4638672e+03 5.1726151e+01 2.5850814e+01
5.6572266e+03 4.9701253e+01 3.9731990e+01
5.8564453e+03 4.9905122e+01 3.8570626e+01
6.0629883e+03 5.3061918e+01 3.4066766e+01
6.2768555e+03 5.1952204e+01 1.8978770e+01
6.4980469e+03 4.7930302e+01 -2.4190107e+00
6.7265625e+03 4.8837573e+01 4.3738247e+01
6.9638672e+03 5.1026209e+01 7.3574170e+00
7.2099609e+03 4.8628049e+01 -1.3978701e+01
7.4648438e+03 3.3649241e+01 -1.0227172e+01
7.7270508e+03 4.5512203e+01 2.0697706e+01
7.9995117e+03 4.2166126e+01 2.9061215e+00
8.2822266e+03 3.4162464e+01 7.3535225e+01
8.5737305e+03 4.7804349e+01 7.8455077e+01
8.8769531e+03 5.2059133e+01 6.4750269e+01
9.1889648e+03 5.2323182e+01 4.5366384e+01
9.5141602e+03 5.0277776e+01 3.0842910e+01
9.8496094e+03 4.9082298e+01 3.4437041e+01
1.0196777e+04 4.8650820e+01 2.4888457e+01
1.0555664e+04 4.7179537e+01 6.7810040e+00
1.0927734e+04 4.4094308e+01 3.0456703e+00
1.1312988e+04 4.2036070e+01 1.2710946e+01
1.1712891e+04 4.1252247e+01 2.0758228e+01
1.2125977e+04 3.9510569e+01 1.5890253e+01
1.2553711e+04 3.5863272e+01 2.7642358e+01
1.2996094e+04 3.5626460e+01 3.7054311e+01
1.3454590e+04 2.8101666e+01 3.2963125e+01
1.3929199e+04 2.9178757e+01 8.0472632e+01
1.4419922e+04 3.0329072e+01 1.0173661e+02
1.4928223e+04 3.3137985e+01 1.2036254e+02
1.5455566e+04 3.6761676e+01 1.1814452e+02
1.6000488e+04 3.8045798e+01 1.1191014e+02
1.6564453e+04 3.9069559e+01 1.0496963e+02
1.7148926e+04 4.0319015e+01 8.5441267e+01
1.7752441e+04 3.9639784e+01 7.5717884e+01
1.8379395e+04 3.7014639e+01 7.2893247e+01
1.9026855e+04 3.8552428e+01 7.2106494e+01
1.9697754e+04 3.8363483e+01 6.8955264e+01
1.9999512e+04 4.1069799e+01 1.0855453e+02
];
