Param_Coord_x1 = 1
Param_Coord_x2 = 150
Param_Coord_x3 = 90
Param_Coord_Type = Spherical
Param_Coord_AngularFormat = degree
Param_Coord_Front = '0,0'
Param_Coord_Top = '90,0'
Data_Domain=Frequency
Data_Phase_AngularFormat=degree
Data_Format = LeveldB_Phase
Data_LevelType=SoundPressure

Curve=[
2.0507813e+01 4.0423864e+01 -7.7288429e+00 
2.1972656e+01 4.9311239e+01 -9.3099429e+00 
2.3437500e+01 5.2685260e+01 -3.3588407e+01 
2.4902344e+01 5.3300878e+01 -5.9005751e+01 
2.6367188e+01 5.4176455e+01 -5.7275021e+01 
2.7832031e+01 5.6619484e+01 -6.3972951e+01 
2.9296875e+01 5.8678755e+01 -7.4208373e+01 
3.0761719e+01 6.0200777e+01 -8.3982993e+01 
3.2226563e+01 6.1876637e+01 -9.3739871e+01 
3.3691406e+01 6.3088011e+01 -1.0313175e+02 
3.5156250e+01 6.4459355e+01 -1.1107829e+02 
3.6621094e+01 6.5545291e+01 -1.2083517e+02 
3.8085938e+01 6.6394735e+01 -1.2915254e+02 
3.9550781e+01 6.7124986e+01 -1.3672633e+02 
4.1015625e+01 6.7815850e+01 -1.4368807e+02 
4.2480469e+01 6.8508826e+01 -1.4981951e+02 
4.3945313e+01 6.9146149e+01 -1.5597033e+02 
4.5410156e+01 6.9704710e+01 -1.6173520e+02 
4.6875000e+01 7.0195255e+01 -1.6728093e+02 
4.8339844e+01 7.0627259e+01 -1.7225890e+02 
5.1269531e+01 7.1453747e+01 1.7889743e+02 
5.2734375e+01 7.1871637e+01 1.7473861e+02 
5.4199219e+01 7.2270811e+01 1.7070976e+02 
5.5664063e+01 7.2502282e+01 1.6658588e+02 
5.8593750e+01 7.3142891e+01 1.5969013e+02 
6.0058594e+01 7.3480156e+01 1.5629993e+02 
6.2988281e+01 7.4063767e+01 1.5057078e+02 
6.4453125e+01 7.4356881e+01 1.4776068e+02 
6.7382813e+01 7.4892019e+01 1.4216925e+02 
6.8847656e+01 7.5120563e+01 1.3910197e+02 
7.1777344e+01 7.5682372e+01 1.3338592e+02 
7.4707031e+01 7.6185965e+01 1.2857380e+02 
7.7636719e+01 7.6546532e+01 1.2378075e+02 
7.9101563e+01 7.6738362e+01 1.2075414e+02 
8.2031250e+01 7.7220242e+01 1.1534791e+02 
8.4960938e+01 7.7638125e+01 1.1097892e+02 
8.7890625e+01 7.7880704e+01 1.0598446e+02 
9.0820313e+01 7.8179582e+01 1.0047061e+02 
9.5214844e+01 7.8623560e+01 9.4156244e+01 
9.8144531e+01 7.8822572e+01 8.9363904e+01 
1.0107422e+02 7.9039633e+01 8.4512039e+01 
1.0546875e+02 7.9314665e+01 7.8005092e+01 
1.0839844e+02 7.9427346e+01 7.3624063e+01 
1.1279297e+02 7.9571545e+01 6.7076134e+01 
1.1718750e+02 7.9795440e+01 6.1409027e+01 
1.2011719e+02 7.9796410e+01 5.6887155e+01 
1.2451172e+02 7.9821055e+01 5.2111043e+01 
1.2890625e+02 7.9827677e+01 4.6945741e+01 
1.3330078e+02 7.9825936e+01 4.2594727e+01 
1.3916016e+02 7.9857381e+01 3.6757634e+01 
1.4355469e+02 7.9833334e+01 3.2329147e+01 
1.4794922e+02 7.9742276e+01 2.8233720e+01 
1.5380859e+02 7.9621471e+01 2.3662302e+01 
1.5966797e+02 7.9562273e+01 1.9148161e+01 
1.6552734e+02 7.9406070e+01 1.4824667e+01 
1.7138672e+02 7.9346415e+01 1.1567096e+01 
1.7724609e+02 7.9318837e+01 7.1493741e+00 
1.8310547e+02 7.9135482e+01 3.0017718e+00 
1.8896484e+02 7.8872845e+01 2.1406732e-02 
1.9628906e+02 7.8858002e+01 -3.1613856e+00 
2.0361328e+02 7.8731264e+01 -7.8783569e+00 
2.1093750e+02 7.8483040e+01 -1.1684897e+01 
2.1826172e+02 7.8221027e+01 -1.5206269e+01 
2.2558594e+02 7.7869011e+01 -1.8234227e+01 
2.3291016e+02 7.7671602e+01 -1.8912881e+01 
2.4169922e+02 7.7671337e+01 -2.2683669e+01 
2.5048828e+02 7.7451457e+01 -2.5734582e+01 
2.5927734e+02 7.7303794e+01 -2.7737307e+01 
2.6806641e+02 7.7336365e+01 -3.0870921e+01 
2.7685547e+02 7.7223312e+01 -3.4807743e+01 
2.8710938e+02 7.6772289e+01 -3.8672987e+01 
2.9736328e+02 7.6562775e+01 -4.0291590e+01 
3.0761719e+02 7.6308180e+01 -4.2667840e+01 
3.1933594e+02 7.6350161e+01 -4.4145727e+01 
3.2958984e+02 7.6335979e+01 -4.7941385e+01 
3.4130859e+02 7.6283293e+01 -5.0865029e+01 
3.5302734e+02 7.6113930e+01 -5.5800460e+01 
3.6621094e+02 7.5655006e+01 -5.9024279e+01 
3.7939453e+02 7.5349565e+01 -6.0785560e+01 
3.9257813e+02 7.5105546e+01 -6.3866850e+01 
4.0576172e+02 7.4890750e+01 -6.3514600e+01 
4.2041016e+02 7.5002090e+01 -6.8539177e+01 
4.3505859e+02 7.4257668e+01 -7.1481265e+01 
4.5117188e+02 7.4388285e+01 -7.0398364e+01 
4.6582031e+02 7.4182416e+01 -7.5109899e+01 
4.8339844e+02 7.4034896e+01 -7.3822297e+01 
4.9951172e+02 7.4361768e+01 -7.7659590e+01 
5.1708984e+02 7.4886454e+01 -7.8760173e+01 
5.3613281e+02 7.5482893e+01 -9.1842541e+01 
5.5517578e+02 7.4435451e+01 -1.0092716e+02 
5.7421875e+02 7.3483331e+01 -1.0281430e+02 
5.9472656e+02 7.3677598e+01 -1.0447918e+02 
6.1523438e+02 7.3082417e+01 -1.1618463e+02 
6.3720703e+02 7.2358180e+01 -1.1366392e+02 
6.5917969e+02 7.2399655e+01 -1.1721412e+02 
6.8261719e+02 7.2491200e+01 -1.2815283e+02 
7.0751953e+02 7.1179420e+01 -1.3449915e+02 
7.3242188e+02 7.1065375e+01 -1.4510199e+02 
7.5732422e+02 6.9233530e+01 -1.3882238e+02 
7.8515625e+02 6.9227787e+01 -1.5564802e+02 
8.1152344e+02 6.8084595e+01 -1.4845866e+02 
8.4082031e+02 6.5546981e+01 -1.6118351e+02 
8.7011719e+02 6.6477697e+01 -1.5271534e+02 
9.0087891e+02 6.2581794e+01 -1.4685876e+02 
9.3310547e+02 6.3322349e+01 -1.4928092e+02 
9.6533203e+02 6.2060097e+01 -1.3841315e+02 
1.0004883e+03 6.5290874e+01 -1.4855147e+02 
1.0356445e+03 6.3811649e+01 -1.5379828e+02 
1.0722656e+03 6.3183788e+01 -1.6484541e+02 
1.1088867e+03 6.0373298e+01 -1.7306722e+02 
1.1484375e+03 6.1169251e+01 -1.6536755e+02 
1.1894531e+03 5.6711804e+01 -1.6183953e+02 
1.2304688e+03 6.0849264e+01 -1.6322919e+02 
1.2744141e+03 5.6758163e+01 -1.4403432e+02 
1.3198242e+03 5.7967396e+01 -1.5231470e+02 
1.3666992e+03 5.1226382e+01 -1.5592224e+02 
1.4135742e+03 5.8405305e+01 -1.3101954e+02 
1.4633789e+03 5.9541921e+01 -1.1936135e+02 
1.5161133e+03 6.1269163e+01 -1.4062164e+02 
1.5688477e+03 6.4560848e+01 -1.4333138e+02 
1.6245117e+03 6.3575871e+01 -1.5092208e+02 
1.6816406e+03 6.5900239e+01 -1.6247012e+02 
1.7416992e+03 6.6962183e+01 -1.7774959e+02 
1.8032227e+03 6.6103041e+01 1.6842157e+02 
1.8662109e+03 6.5397666e+01 1.5423329e+02 
1.9321289e+03 6.4871966e+01 1.5901601e+02 
1.9995117e+03 6.6344722e+01 1.5884080e+02 
2.0698242e+03 6.7236886e+01 1.3893805e+02 
2.1430664e+03 6.8014540e+01 1.2910902e+02 
2.2192383e+03 6.8011004e+01 1.0631291e+02 
2.2968750e+03 6.6545434e+01 9.7662438e+01 
2.3789063e+03 6.6571741e+01 9.4182280e+01 
2.4624023e+03 6.6750112e+01 8.3006279e+01 
2.5488281e+03 6.6420892e+01 8.1338144e+01 
2.6396484e+03 6.8627610e+01 7.0221153e+01 
2.7319336e+03 6.7949999e+01 4.9471851e+01 
2.8286133e+03 6.8486637e+01 5.5067859e+01 
2.9282227e+03 6.8154449e+01 3.3747618e+01 
3.0307617e+03 6.8378099e+01 1.6552878e+01 
3.1376953e+03 6.6978316e+01 8.0786553e+00 
3.2490234e+03 6.7798796e+01 -4.0065536e+00 
3.3632813e+03 6.7641831e+01 -2.3623668e+01 
3.4819336e+03 6.6807266e+01 -3.1248621e+01 
3.6049805e+03 6.6765802e+01 -4.1061922e+01 
3.7324219e+03 6.5997081e+01 -5.7384998e+01 
3.8642578e+03 6.5616087e+01 -7.3542536e+01 
4.0004883e+03 6.4347494e+01 -7.6558256e+01 
4.1411133e+03 6.5482644e+01 -8.7798202e+01 
4.2875977e+03 6.3351378e+01 -1.0338692e+02 
4.4384766e+03 6.4138257e+01 -1.0765980e+02 
4.5952148e+03 6.2628493e+01 -1.2023065e+02 
4.7563477e+03 6.2852610e+01 -1.2501598e+02 
4.9248047e+03 6.3343685e+01 -1.3128434e+02 
5.0976563e+03 6.3080887e+01 -1.4500212e+02 
5.2778320e+03 6.4333674e+01 -1.5032520e+02 
5.4638672e+03 6.2933399e+01 -1.6661605e+02 
5.6572266e+03 6.4962486e+01 -1.7590422e+02 
5.8564453e+03 6.4517467e+01 1.7289072e+02 
6.0629883e+03 6.4905025e+01 1.5897633e+02 
6.2768555e+03 6.5238858e+01 1.4029710e+02 
6.4980469e+03 6.5447925e+01 1.2600360e+02 
6.7265625e+03 6.4873631e+01 1.0897350e+02 
6.9638672e+03 6.4351238e+01 9.0943276e+01 
7.2099609e+03 6.3572156e+01 7.5818249e+01 
7.4648438e+03 6.3231915e+01 6.0221564e+01 
7.7270508e+03 6.3202264e+01 4.7113425e+01 
7.9995117e+03 6.2593965e+01 3.4585142e+01 
8.2822266e+03 6.3136491e+01 2.0217810e+01 
8.5737305e+03 6.4100861e+01 2.2442189e+00 
8.8769531e+03 6.3565113e+01 -1.8416426e+01 
9.1889648e+03 6.2221068e+01 -3.8098825e+01 
9.5141602e+03 6.0549719e+01 -5.5449271e+01 
9.8496094e+03 5.9254386e+01 -6.6236203e+01 
1.0196777e+04 5.8517461e+01 -8.0100835e+01 
1.0555664e+04 5.8362610e+01 -9.2716783e+01 
1.0927734e+04 5.7868391e+01 -1.0630860e+02 
1.1312988e+04 5.6926457e+01 -1.2401010e+02 
1.1712891e+04 5.5839677e+01 -1.3951358e+02 
1.2125977e+04 5.4543621e+01 -1.5085591e+02 
1.2553711e+04 5.3804637e+01 -1.5738862e+02 
1.2996094e+04 5.4058156e+01 -1.6809455e+02 
1.3454590e+04 5.3568566e+01 1.7415151e+02 
1.3929199e+04 5.3174733e+01 1.6339330e+02 
1.4419922e+04 5.3159447e+01 1.4750826e+02 
1.4928223e+04 5.3087508e+01 1.3309036e+02 
1.5455566e+04 5.3794096e+01 1.1391387e+02 
1.6000488e+04 5.3891949e+01 9.3959080e+01 
1.6564453e+04 5.4423063e+01 7.1665213e+01 
1.7148926e+04 5.4006227e+01 4.8207110e+01 
1.7752441e+04 5.4201219e+01 3.1369463e+01 
1.8379395e+04 5.4613292e+01 8.1530150e+00 
1.9026855e+04 5.4986969e+01 -1.7939331e+01 
1.9697754e+04 5.4602717e+01 -4.8176371e+01 
1.9999512e+04 5.4780816e+01 -6.8314991e+01 
];
