Param_Coord_x1 = 1
Param_Coord_x2 = 350
Param_Coord_x3 = 90
Param_Coord_Type = Spherical
Param_Coord_AngularFormat = degree
Param_Coord_Front = '0,0'
Param_Coord_Top = '90,0'
Data_Domain=Frequency
Data_Phase_AngularFormat=degree
Data_Format = LeveldB_Phase
Data_LevelType=SoundPressure

Curve=[
2.0507813e+01 3.9069762e+01 -7.3897632e+01 
2.1972656e+01 4.5444834e+01 -1.6822490e+01 
2.3437500e+01 5.1083819e+01 -4.3495323e+01 
2.4902344e+01 5.3030548e+01 -6.2160226e+01 
2.6367188e+01 5.4349382e+01 -6.5391791e+01 
2.7832031e+01 5.6770019e+01 -7.0577285e+01 
2.9296875e+01 5.8983435e+01 -7.9308437e+01 
3.0761719e+01 6.0624436e+01 -8.6897868e+01 
3.2226563e+01 6.2248123e+01 -9.4988258e+01 
3.3691406e+01 6.3766173e+01 -1.0213950e+02 
3.5156250e+01 6.5307749e+01 -1.1029015e+02 
3.6621094e+01 6.6466850e+01 -1.1989026e+02 
3.8085938e+01 6.7304489e+01 -1.2818272e+02 
3.9550781e+01 6.8035761e+01 -1.3545625e+02 
4.1015625e+01 6.8712365e+01 -1.4200021e+02 
4.2480469e+01 6.9391783e+01 -1.4766352e+02 
4.3945313e+01 7.0022077e+01 -1.5331154e+02 
4.5410156e+01 7.0592571e+01 -1.5867146e+02 
4.6875000e+01 7.1080512e+01 -1.6386470e+02 
4.8339844e+01 7.1514552e+01 -1.6846262e+02 
5.1269531e+01 7.2367025e+01 -1.7655620e+02 
5.2734375e+01 7.2792179e+01 1.7961958e+02 
5.4199219e+01 7.3195134e+01 1.7591737e+02 
5.5664063e+01 7.3520648e+01 1.7263013e+02 
5.8593750e+01 7.4157709e+01 1.6629329e+02 
6.0058594e+01 7.4523308e+01 1.6341636e+02 
6.2988281e+01 7.5185201e+01 1.5772938e+02 
6.4453125e+01 7.5476144e+01 1.5502719e+02 
6.7382813e+01 7.5970761e+01 1.4966888e+02 
6.8847656e+01 7.6188579e+01 1.4685131e+02 
7.1777344e+01 7.6728535e+01 1.4160568e+02 
7.4707031e+01 7.7242550e+01 1.3728569e+02 
7.7636719e+01 7.7578577e+01 1.3297709e+02 
7.9101563e+01 7.7779755e+01 1.3026237e+02 
8.2031250e+01 7.8283160e+01 1.2531932e+02 
8.4960938e+01 7.8706267e+01 1.2141637e+02 
8.7890625e+01 7.8951293e+01 1.1685219e+02 
9.0820313e+01 7.9290352e+01 1.1194297e+02 
9.5214844e+01 7.9730163e+01 1.0605259e+02 
9.8144531e+01 7.9905465e+01 1.0173522e+02 
1.0107422e+02 8.0130308e+01 9.7460583e+01 
1.0546875e+02 8.0408788e+01 9.1724988e+01 
1.0839844e+02 8.0528490e+01 8.7996546e+01 
1.1279297e+02 8.0809033e+01 8.1936764e+01 
1.1718750e+02 8.0910984e+01 7.6743166e+01 
1.2011719e+02 8.1011172e+01 7.3219321e+01 
1.2451172e+02 8.1058081e+01 6.8465432e+01 
1.2890625e+02 8.1109434e+01 6.4152806e+01 
1.3330078e+02 8.1164788e+01 6.0086313e+01 
1.3916016e+02 8.1187005e+01 5.4464780e+01 
1.4355469e+02 8.1104492e+01 5.0753185e+01 
1.4794922e+02 8.1024976e+01 4.7589923e+01 
1.5380859e+02 8.0951182e+01 4.3993892e+01 
1.5966797e+02 8.0932232e+01 4.0372107e+01 
1.6552734e+02 8.0860323e+01 3.6969160e+01 
1.7138672e+02 8.0854126e+01 3.3704878e+01 
1.7724609e+02 8.0709804e+01 3.0148706e+01 
1.8310547e+02 8.0527909e+01 2.7700247e+01 
1.8896484e+02 8.0451338e+01 2.6030007e+01 
1.9628906e+02 8.0487854e+01 2.2763612e+01 
2.0361328e+02 8.0299884e+01 1.9316840e+01 
2.1093750e+02 8.0064518e+01 1.7052613e+01 
2.1826172e+02 7.9897853e+01 1.5520452e+01 
2.2558594e+02 7.9799944e+01 1.4747899e+01 
2.3291016e+02 7.9985792e+01 1.2570100e+01 
2.4169922e+02 7.9725860e+01 9.6257143e+00 
2.5048828e+02 7.9647410e+01 8.3049098e+00 
2.5927734e+02 7.9626469e+01 6.7602011e+00 
2.6806641e+02 7.9609769e+01 4.4756709e+00 
2.7685547e+02 7.9426041e+01 3.1283397e+00 
2.8710938e+02 7.9465010e+01 2.4519941e+00 
2.9736328e+02 7.9608928e+01 1.2799289e-01 
3.0761719e+02 7.9449383e+01 -1.5222667e+00 
3.1933594e+02 7.9625899e+01 -3.9271644e+00 
3.2958984e+02 7.9544940e+01 -5.4249923e+00 
3.4130859e+02 7.9602256e+01 -8.4686946e+00 
3.5302734e+02 7.9337997e+01 -9.9606914e+00 
3.6621094e+02 7.9310559e+01 -1.0703510e+01 
3.7939453e+02 7.9377504e+01 -1.1844833e+01 
3.9257813e+02 7.9489456e+01 -1.2195429e+01 
4.0576172e+02 7.9705576e+01 -1.5793320e+01 
4.2041016e+02 7.9221117e+01 -1.7902672e+01 
4.3505859e+02 7.9339263e+01 -1.7163147e+01 
4.5117188e+02 7.9219833e+01 -1.8144722e+01 
4.6582031e+02 7.9647547e+01 -1.6589462e+01 
4.8339844e+02 7.9866715e+01 -2.0765784e+01 
4.9951172e+02 8.0545058e+01 -2.0884106e+01 
5.1708984e+02 8.0958176e+01 -2.8013537e+01 
5.3613281e+02 8.0766590e+01 -3.2729291e+01 
5.5517578e+02 8.0784585e+01 -3.6158653e+01 
5.7421875e+02 8.0902604e+01 -3.9771767e+01 
5.9472656e+02 8.0905616e+01 -4.4930210e+01 
6.1523438e+02 8.0532138e+01 -4.9019090e+01 
6.3720703e+02 8.0602397e+01 -5.2260971e+01 
6.5917969e+02 8.0093850e+01 -5.7573298e+01 
6.8261719e+02 7.9727044e+01 -5.9107986e+01 
7.0751953e+02 7.9602450e+01 -6.4961396e+01 
7.3242188e+02 7.9150929e+01 -6.5029691e+01 
7.5732422e+02 7.8717415e+01 -6.8677791e+01 
7.8515625e+02 7.8761166e+01 -6.6788442e+01 
8.1152344e+02 7.8250209e+01 -6.7957757e+01 
8.4082031e+02 7.8519261e+01 -6.5709468e+01 
8.7011719e+02 7.8503528e+01 -6.5126580e+01 
9.0087891e+02 7.8185379e+01 -6.3141781e+01 
9.3310547e+02 7.8989686e+01 -6.3587371e+01 
9.6533203e+02 7.9620917e+01 -6.7684123e+01 
1.0004883e+03 8.0076302e+01 -7.4404809e+01 
1.0356445e+03 7.9947850e+01 -8.2252367e+01 
1.0722656e+03 7.9589375e+01 -8.6827638e+01 
1.1088867e+03 7.9430773e+01 -8.7445864e+01 
1.1484375e+03 7.9728144e+01 -8.6367969e+01 
1.1894531e+03 8.0664755e+01 -9.2926810e+01 
1.2304688e+03 8.1225915e+01 -9.7746963e+01 
1.2744141e+03 8.1179942e+01 -1.0995912e+02 
1.3198242e+03 8.1028566e+01 -1.1476628e+02 
1.3666992e+03 8.0637144e+01 -1.2129835e+02 
1.4135742e+03 8.0579565e+01 -1.2583959e+02 
1.4633789e+03 8.0100472e+01 -1.3139701e+02 
1.5161133e+03 8.0268984e+01 -1.3588955e+02 
1.5688477e+03 7.9959493e+01 -1.4120574e+02 
1.6245117e+03 7.9934520e+01 -1.4651372e+02 
1.6816406e+03 8.0147057e+01 -1.4888222e+02 
1.7416992e+03 8.0443598e+01 -1.5746881e+02 
1.8032227e+03 8.0630891e+01 -1.6733337e+02 
1.8662109e+03 7.9672368e+01 -1.7442644e+02 
1.9321289e+03 7.9144417e+01 -1.7544488e+02 
1.9995117e+03 7.9802922e+01 -1.7820694e+02 
2.0698242e+03 8.0194373e+01 1.7317749e+02 
2.1430664e+03 7.9612200e+01 1.6445751e+02 
2.2192383e+03 7.9471249e+01 1.6456293e+02 
2.2968750e+03 8.0349689e+01 1.6028352e+02 
2.3789063e+03 8.0754474e+01 1.4998188e+02 
2.4624023e+03 8.0842093e+01 1.4356193e+02 
2.5488281e+03 8.1361883e+01 1.3422796e+02 
2.6396484e+03 8.1078920e+01 1.2389919e+02 
2.7319336e+03 8.0880341e+01 1.1870698e+02 
2.8286133e+03 8.2012374e+01 1.1211265e+02 
2.9282227e+03 8.1385808e+01 9.7012694e+01 
3.0307617e+03 8.0587306e+01 9.1011238e+01 
3.1376953e+03 8.0892731e+01 8.4626012e+01 
3.2490234e+03 8.1040776e+01 7.3941893e+01 
3.3632813e+03 8.0871834e+01 6.3903532e+01 
3.4819336e+03 8.0505080e+01 5.5146524e+01 
3.6049805e+03 8.0410001e+01 4.8078588e+01 
3.7324219e+03 8.0397168e+01 3.7316816e+01 
3.8642578e+03 7.9522319e+01 3.3018989e+01 
4.0004883e+03 8.0245231e+01 2.3264557e+01 
4.1411133e+03 7.9147874e+01 1.6502382e+01 
4.2875977e+03 7.9536571e+01 8.9719731e+00 
4.4384766e+03 7.8886479e+01 3.2857737e+00 
4.5952148e+03 7.8973059e+01 -5.8539657e+00 
4.7563477e+03 7.8516906e+01 -8.3457364e+00 
4.9248047e+03 7.8441061e+01 -1.7662758e+01 
5.0976563e+03 7.8628434e+01 -2.0806963e+01 
5.2778320e+03 7.8599428e+01 -2.7069967e+01 
5.4638672e+03 7.8660223e+01 -3.5716114e+01 
5.6572266e+03 7.9387105e+01 -4.1977456e+01 
5.8564453e+03 7.8969829e+01 -5.0699112e+01 
6.0629883e+03 7.9416789e+01 -6.2654977e+01 
6.2768555e+03 7.9042243e+01 -7.2718180e+01 
6.4980469e+03 7.8469603e+01 -8.4262990e+01 
6.7265625e+03 7.6816558e+01 -8.5842957e+01 
6.9638672e+03 7.7683525e+01 -8.6642672e+01 
7.2099609e+03 7.8821274e+01 -9.8084407e+01 
7.4648438e+03 7.8290871e+01 -1.1165231e+02 
7.7270508e+03 7.7705164e+01 -1.2252123e+02 
7.9995117e+03 7.7407659e+01 -1.2433515e+02 
8.2822266e+03 7.7467585e+01 -1.2397656e+02 
8.5737305e+03 7.9141064e+01 -1.2705638e+02 
8.8769531e+03 8.0342776e+01 -1.3809975e+02 
9.1889648e+03 8.1061702e+01 -1.5222207e+02 
9.5141602e+03 8.0946936e+01 -1.6771962e+02 
9.8496094e+03 8.0508721e+01 1.7947587e+02 
1.0196777e+04 8.0345770e+01 1.6779661e+02 
1.0555664e+04 8.0163639e+01 1.5756914e+02 
1.0927734e+04 8.0044244e+01 1.4775221e+02 
1.1312988e+04 8.0050551e+01 1.3787181e+02 
1.1712891e+04 8.0122186e+01 1.2749489e+02 
1.2125977e+04 8.0149953e+01 1.1584830e+02 
1.2553711e+04 8.0074074e+01 1.0399015e+02 
1.2996094e+04 8.0042164e+01 9.1447240e+01 
1.3454590e+04 7.9796046e+01 7.7755720e+01 
1.3929199e+04 7.9674968e+01 6.3996523e+01 
1.4419922e+04 7.9463874e+01 4.9704151e+01 
1.4928223e+04 7.9458633e+01 3.5096059e+01 
1.5455566e+04 7.9375496e+01 1.7798907e+01 
1.6000488e+04 7.9180757e+01 2.5291854e+00 
1.6564453e+04 7.9399865e+01 -1.2835787e+01 
1.7148926e+04 7.9622298e+01 -2.9112498e+01 
1.7752441e+04 7.9795724e+01 -4.5306147e+01 
1.8379395e+04 7.9718377e+01 -6.2900172e+01 
1.9026855e+04 7.9309916e+01 -7.8320762e+01 
1.9697754e+04 7.9014995e+01 -9.1186964e+01 
1.9999512e+04 7.9273563e+01 -9.5679384e+01 
];
