Frequency Spectrum for Input Signal

Data Shown:    V2-8 (Community)
Display Parameters:   Frequency: 1000Hz (1/24th Octave)   Mer: 180°  Par: 90°

Freq [Hz]	Signal Level [dBSPL]
22.4	54.2
23	54.7
23.6	55.2
24	55.9
25	56.6
25.8	57.2
26.5	57.8
27.2	58.4
28	58.9
29	59.4
30	59.9
30.7	60.5
31.5	61.1
32.5	61.6
33.5	62.1
34.5	62.6
35.5	63
36.5	63.6
37.5	64.1
38.7	64.6
40	65
41.2	65.4
42.5	65.9
43.7	66.5
45	67
46.2	67.4
47.5	67.9
48.7	68.4
50	68.9
51.5	69.3
53	69.7
54.5	70.2
56	70.7
58	71.2
60	71.6
61.5	72.1
63	72.6
65	73
67	73.5
69	74
71	74.4
73	74.9
75	75.3
77.5	75.8
80	76.2
82.5	76.7
85	77.1
87.5	77.5
90	77.9
92.5	78.3
95	78.7
97.5	79.1
100	79.4
103	79.8
106	80.1
109	80.4
112	80.7
115	80.9
118	81.2
122	81.3
125	81.5
128	81.6
132	81.6
136	81.7
140	81.6
145	81.5
150	81.4
155	81.2
160	80.9
165	80.6
170	80.3
175	79.9
180	79.5
185	79.2
190	78.9
195	78.8
200	78.7
206	78.7
212	78.8
218	78.8
224	78.8
230	78.7
236	78.5
240	78.3
250	78.4
258	78.8
265	79.5
272	80.3
280	81.1
290	81.8
300	82.3
307	82.6
315	82.6
325	82.5
335	82.2
345	81.8
355	81.2
365	80.7
375	80.2
387	79.7
400	79.3
412	79.1
425	79.1
437	79.6
450	80.1
462	80.7
475	80.8
487	80.6
500	80.1
515	79.5
530	79.2
545	79.2
560	79.4
580	79.5
600	79.7
615	79.7
630	79.3
650	78.1
670	75.6
690	71.4
710	69.2
730	72.7
750	75.8
775	76.4
800	76
825	76.5
850	76.5
875	75.2
900	73.3
925	72.6
950	73.2
975	73.8
1000	73.7
1030	73.6
1060	72.9
1090	71.7
1120	70.5
1150	69.6
1180	69.6
1220	70.3
1250	72.2
1280	73.6
1320	73.6
1360	72.9
1400	72.8
1450	74.3
1500	75.8
1550	76.9
1600	76.3
1650	76.7
1700	76.5
1750	75.8
1800	75.8
1850	75.9
1900	76.5
1950	76.5
2000	75.7
2060	74.6
2120	74.3
2180	72.4
2240	70
2300	70.5
2360	68.5
2400	67
2500	65.9
2580	64.8
2650	66.8
2720	68.9
2800	70.1
2900	68.9
3000	69.2
3070	69.1
3150	68.2
3250	69
3350	67.1
3450	66.8
3550	67.1
3650	67.1
3750	67.6
3870	70.9
4000	71.3
4120	72.7
4250	70.7
4370	71.9
4500	70.7
4620	67.7
4750	61.9
4870	64.1
5000	64.2
5150	68.4
5300	71
5450	69.7
5600	67.6
5800	67.4
6000	66.3
6150	65
6300	65.2
6500	63.6
6700	66.6
6900	69
7100	68.4
7300	67.2
7500	64.1
7750	64.3
8000	67.7
8250	65.5
8500	64.1
8750	58.4
9000	61.4
9250	64.4
9500	63.8
9750	60.2
10000	50.8
10300	60.4
10600	65.5
10900	65.4
11200	64.3
11500	56.6
11800	53.3
12200	58.8
12500	54
12800	53.2
13200	45.2
13600	50.6
14000	54.4
14500	58.4
15000	64.4
15500	59.6
16000	54.3
16500	55.2
17000	46.1
17500	48.5
18000	50.3
18500	45.6
19000	41
19500	40.3
20000	45.8
20600	57.6
21200	52.6
21800	54.6
22400	50
