Param_Coord_x1 = 2
Param_Coord_x2 = 210
Param_Coord_x3 = 90
Param_Coord_Type = Spherical
Param_Coord_AngularFormat = degree
Param_Coord_Front = '0,0'
Param_Coord_Top = '90,0'
Data_Domain=Frequency
Data_Phase_AngularFormat=degree
Data_Format = LeveldB_Phase
Data_LevelType=SoundPressure

Curve=[
2.0507813e+01 6.4246425e+01 -5.6476297e+01 
2.1972656e+01 6.6254895e+01 -5.9361487e+01 
2.3437500e+01 6.7368260e+01 -5.8715924e+01 
2.4902344e+01 6.8479359e+01 -6.2992718e+01 
2.6367188e+01 7.0145750e+01 -7.0753848e+01 
2.7832031e+01 7.0837371e+01 -7.3971456e+01 
2.9296875e+01 7.1786877e+01 -7.9375294e+01 
3.0761719e+01 7.2754025e+01 -8.4432712e+01 
3.2226563e+01 7.3693035e+01 -8.9336471e+01 
3.3691406e+01 7.4649399e+01 -9.4820934e+01 
3.5156250e+01 7.5592731e+01 -1.0069766e+02 
3.6621094e+01 7.6464063e+01 -1.0646802e+02 
3.8085938e+01 7.7354040e+01 -1.1274445e+02 
3.9550781e+01 7.8172763e+01 -1.1869625e+02 
4.1015625e+01 7.9039455e+01 -1.2556960e+02 
4.2480469e+01 7.9842255e+01 -1.3263706e+02 
4.3945313e+01 8.0568727e+01 -1.3975768e+02 
4.5410156e+01 8.1251024e+01 -1.4726731e+02 
4.6875000e+01 8.1869295e+01 -1.5464535e+02 
4.8339844e+01 8.2426194e+01 -1.6239235e+02 
5.1269531e+01 8.3280270e+01 -1.7871380e+02 
5.2734375e+01 8.3574758e+01 1.7332367e+02 
5.4199219e+01 8.3777850e+01 1.6571565e+02 
5.5664063e+01 8.3898891e+01 1.5844319e+02 
5.8593750e+01 8.3948556e+01 1.4508021e+02 
6.0058594e+01 8.3900956e+01 1.3876764e+02 
6.2988281e+01 8.3710261e+01 1.2729680e+02 
6.4453125e+01 8.3618644e+01 1.2254894e+02 
6.7382813e+01 8.3539319e+01 1.1418042e+02 
6.8847656e+01 8.3488936e+01 1.1016711e+02 
7.1777344e+01 8.3315259e+01 1.0187559e+02 
7.4707031e+01 8.3190628e+01 9.4204891e+01 
7.7636719e+01 8.3075495e+01 8.7893880e+01 
7.9101563e+01 8.2975037e+01 8.4999524e+01 
8.2031250e+01 8.2773980e+01 7.8976160e+01 
8.4960938e+01 8.2668735e+01 7.3347193e+01 
8.7890625e+01 8.2520730e+01 6.8811980e+01 
9.0820313e+01 8.2355780e+01 6.4568578e+01 
9.5214844e+01 8.2300419e+01 5.8373404e+01 
9.8144531e+01 8.2228552e+01 5.4691747e+01 
1.0107422e+02 8.2163209e+01 5.1045404e+01 
1.0546875e+02 8.2106926e+01 4.5251924e+01 
1.0839844e+02 8.1990962e+01 4.1956437e+01 
1.1279297e+02 8.1899520e+01 3.7859147e+01 
1.1718750e+02 8.1826682e+01 3.3169737e+01 
1.2011719e+02 8.1770358e+01 3.0766276e+01 
1.2451172e+02 8.1759507e+01 2.5742861e+01 
1.2890625e+02 8.1473419e+01 2.1880664e+01 
1.3330078e+02 8.1271792e+01 1.9243011e+01 
1.3916016e+02 8.1295414e+01 1.5787971e+01 
1.4355469e+02 8.1272201e+01 1.2026732e+01 
1.4794922e+02 8.1088515e+01 8.7332839e+00 
1.5380859e+02 8.0947446e+01 6.1105665e+00 
1.5966797e+02 8.1078571e+01 2.0840255e+00 
1.6552734e+02 8.0813873e+01 -2.3445988e+00 
1.7138672e+02 8.0803928e+01 -4.7692449e+00 
1.7724609e+02 8.0703344e+01 -9.4437947e+00 
1.8310547e+02 8.0416025e+01 -1.2461140e+01 
1.8896484e+02 8.0286387e+01 -1.4648775e+01 
1.9628906e+02 8.0433674e+01 -1.7465925e+01 
2.0361328e+02 8.0248215e+01 -2.4065388e+01 
2.1093750e+02 7.9842512e+01 -2.7084328e+01 
2.1826172e+02 7.9597764e+01 -2.9750384e+01 
2.2558594e+02 7.9076501e+01 -3.3552840e+01 
2.3291016e+02 7.9096762e+01 -3.0735195e+01 
2.4169922e+02 7.9303014e+01 -3.7655668e+01 
2.5048828e+02 7.8711303e+01 -3.9221746e+01 
2.5927734e+02 7.8827746e+01 -4.1102466e+01 
2.6806641e+02 7.9037421e+01 -4.3734650e+01 
2.7685547e+02 7.8833943e+01 -5.0391066e+01 
2.8710938e+02 7.7825543e+01 -5.1880092e+01 
2.9736328e+02 7.8058604e+01 -5.1390409e+01 
3.0761719e+02 7.7279951e+01 -5.4776978e+01 
3.1933594e+02 7.7578424e+01 -5.3754593e+01 
3.2958984e+02 7.7166676e+01 -5.1590609e+01 
3.4130859e+02 7.8154852e+01 -5.2337101e+01 
3.5302734e+02 7.9159635e+01 -6.0530270e+01 
3.6621094e+02 7.8919166e+01 -7.5407840e+01 
3.7939453e+02 7.7285315e+01 -8.2008062e+01 
3.9257813e+02 7.6962855e+01 -8.4966880e+01 
4.0576172e+02 7.6817089e+01 -8.7905956e+01 
4.2041016e+02 7.7247765e+01 -9.5504300e+01 
4.3505859e+02 7.5553243e+01 -1.0688493e+02 
4.5117188e+02 7.6193772e+01 -1.0170068e+02 
4.6582031e+02 7.4636057e+01 -1.2011631e+02 
4.8339844e+02 7.4125626e+01 -1.0302393e+02 
4.9951172e+02 7.4486738e+01 -1.0556921e+02 
5.1708984e+02 7.4634310e+01 -1.1599623e+02 
5.3613281e+02 7.4596739e+01 -1.1823492e+02 
5.5517578e+02 7.3886160e+01 -1.2894729e+02 
5.7421875e+02 7.2078952e+01 -1.3527916e+02 
5.9472656e+02 7.3170363e+01 -1.2876908e+02 
6.1523438e+02 7.2740806e+01 -1.4247071e+02 
6.3720703e+02 7.2749171e+01 -1.4867422e+02 
6.5917969e+02 7.2098033e+01 -1.5726134e+02 
6.8261719e+02 7.1927054e+01 -1.6333057e+02 
7.0751953e+02 6.8762047e+01 1.7686270e+02 
7.3242188e+02 7.0036612e+01 -1.7914761e+02 
7.5732422e+02 6.3111776e+01 1.5778633e+02 
7.8515625e+02 6.9137181e+01 1.7740921e+02 
8.1152344e+02 5.9357130e+01 1.7923812e+02 
8.4082031e+02 6.2538294e+01 1.6396751e+02 
8.7011719e+02 6.5888402e+01 -1.6567140e+02 
9.0087891e+02 6.1766182e+01 -1.7368464e+02 
9.3310547e+02 6.3854702e+01 1.5625412e+02 
9.6533203e+02 6.2096363e+01 1.5000844e+02 
1.0004883e+03 5.9074522e+01 1.7956341e+02 
1.0356445e+03 5.4062632e+01 1.6094086e+02 
1.0722656e+03 5.9131247e+01 1.6410098e+02 
1.1088867e+03 6.1489894e+01 1.7148502e+02 
1.1484375e+03 5.9144433e+01 1.6041841e+02 
1.1894531e+03 5.6399985e+01 -1.5008696e+02 
1.2304688e+03 5.4414473e+01 -1.5408509e+02 
1.2744141e+03 5.9996184e+01 -1.6568849e+02 
1.3198242e+03 6.1147974e+01 -1.7914373e+02 
1.3666992e+03 6.1930165e+01 1.7859858e+02 
1.4135742e+03 6.6123988e+01 1.6798642e+02 
1.4633789e+03 6.4892731e+01 1.3793052e+02 
1.5161133e+03 6.5259123e+01 1.4357423e+02 
1.5688477e+03 6.6289581e+01 1.3352066e+02 
1.6245117e+03 6.6324106e+01 1.2115892e+02 
1.6816406e+03 6.7053822e+01 1.1006009e+02 
1.7416992e+03 6.7647582e+01 9.7958225e+01 
1.8032227e+03 6.7106746e+01 8.3892418e+01 
1.8662109e+03 6.8507515e+01 7.9074620e+01 
1.9321289e+03 6.8419428e+01 6.6577570e+01 
1.9995117e+03 6.8633963e+01 4.9177509e+01 
2.0698242e+03 6.9684428e+01 3.4888766e+01 
2.1430664e+03 6.8339917e+01 2.0704476e+01 
2.2192383e+03 6.9480387e+01 1.1724475e+01 
2.2968750e+03 7.0480050e+01 -5.9078498e+00 
2.3789063e+03 6.9287065e+01 -2.9594492e+01 
2.4624023e+03 6.7496534e+01 -3.0704219e+01 
2.5488281e+03 6.8996997e+01 -4.7893828e+01 
2.6396484e+03 6.7748350e+01 -6.1131571e+01 
2.7319336e+03 6.9622273e+01 -6.0364119e+01 
2.8286133e+03 6.8809556e+01 -8.4254227e+01 
2.9282227e+03 6.8172571e+01 -9.4483456e+01 
3.0307617e+03 6.6696031e+01 -1.1281594e+02 
3.1376953e+03 6.7791356e+01 -1.2060374e+02 
3.2490234e+03 6.6204660e+01 -1.3141278e+02 
3.3632813e+03 6.5956618e+01 -1.4826160e+02 
3.4819336e+03 6.5641160e+01 -1.5655473e+02 
3.6049805e+03 6.3228760e+01 -1.4957720e+02 
3.7324219e+03 6.4971414e+01 1.6756310e+02 
3.8642578e+03 6.5512774e+01 -1.7748464e+02 
4.0004883e+03 6.1302419e+01 1.7136956e+02 
4.1411133e+03 6.4011759e+01 1.5288638e+02 
4.2875977e+03 6.0878267e+01 1.5340747e+02 
4.4384766e+03 6.4560422e+01 1.4427431e+02 
4.5952148e+03 6.2661596e+01 1.4149382e+02 
4.7563477e+03 6.4741704e+01 1.2067275e+02 
4.9248047e+03 6.3815503e+01 1.0872991e+02 
5.0976563e+03 6.4664135e+01 9.3859757e+01 
5.2778320e+03 6.4255769e+01 7.2860367e+01 
5.4638672e+03 6.3645111e+01 5.8729518e+01 
5.6572266e+03 6.2819804e+01 4.2586244e+01 
5.8564453e+03 6.2437021e+01 2.3187121e+01 
6.0629883e+03 6.3304007e+01 6.4160413e+00 
6.2768555e+03 6.0667789e+01 -1.0287247e+01 
6.4980469e+03 6.1528107e+01 -3.3663289e+01 
6.7265625e+03 6.0951100e+01 -5.1303738e+01 
6.9638672e+03 5.9509266e+01 -7.9896832e+01 
7.2099609e+03 5.6696970e+01 -1.0295528e+02 
7.4648438e+03 5.5174101e+01 -1.1297052e+02 
7.7270508e+03 5.3804758e+01 -1.2599431e+02 
7.9995117e+03 5.1401151e+01 -1.6228637e+02 
8.2822266e+03 4.9694444e+01 -1.5930117e+02 
8.5737305e+03 4.3613180e+01 1.7133013e+02 
8.8769531e+03 4.4585986e+01 1.7985810e+02 
9.1889648e+03 4.4544877e+01 -1.7118008e+02 
9.5141602e+03 4.5536589e+01 1.6161691e+02 
9.8496094e+03 4.3689405e+01 1.2702943e+02 
1.0196777e+04 4.0257779e+01 9.2902481e+01 
1.0555664e+04 3.5198544e+01 4.0161551e+01 
1.0927734e+04 3.7046914e+01 1.7503699e+02 
1.1312988e+04 4.0223969e+01 1.5419120e+02 
1.1712891e+04 4.1998239e+01 1.1524752e+02 
1.2125977e+04 4.1442091e+01 1.0046157e+02 
1.2553711e+04 4.3762435e+01 7.2477763e+01 
1.2996094e+04 4.5133071e+01 4.2474539e+01 
1.3454590e+04 4.3893729e+01 1.0283807e+01 
1.3929199e+04 4.3333059e+01 -2.5644143e+01 
1.4419922e+04 4.2162122e+01 -5.8396679e+01 
1.4928223e+04 3.9853850e+01 -9.5597731e+01 
1.5455566e+04 3.5679696e+01 -1.1119189e+02 
1.6000488e+04 3.3578140e+01 -1.0634509e+02 
1.6564453e+04 3.9615604e+01 -1.5001223e+02 
1.7148926e+04 3.3609972e+01 1.7647658e+02 
1.7752441e+04 3.0412227e+01 1.4650298e+02 
1.8379395e+04 3.7460465e+01 1.6078754e+02 
1.9026855e+04 3.9155250e+01 1.1727866e+02 
1.9697754e+04 3.8576223e+01 4.6036876e+01 
1.9999512e+04 3.3998882e+01 8.3311904e+01 
];
