* Frequency Listening window 0
5 13.9847428185518 0
5.07272667468762 13.9017951423878 0
5.14651118321746 13.7676144242753 0
5.22136891213707 13.6279724586416 0
5.29731547179648 13.5029544657718 0
5.37436669960348 13.4037065902987 0
5.45253866332629 13.3192321327652 0
5.53184766444417 13.208993263214 0
5.61231024154687 13.061863369106 0
5.69394317378346 12.9214373590919 0
5.77676348436136 12.827638436185 0
5.86078844409626 12.7406663120566 0
5.9460355750136 12.5910503337398 0
6.03252265400261 12.4166931049103 0
6.12026771652328 12.2807821484863 0
6.20928906036742 12.1386999607911 0
6.29960524947437 11.8866152853368 0
6.39123511780215 11.5189587480422 0
6.48419777325505 11.0955413238003 0
6.57851260166819 10.761826163929 0
6.67419927085017 10.7032887197367 0
6.77127773468446 10.8402621145371 0
6.86976823729045 11.0083919969906 0
6.969691317245 10.9818303878765 0
7.07106781186548 10.549295009293 0
7.173918861555 9.8109812384985 0
7.27826591421094 8.80484511370784 0
7.3841307296975 7.22112788576149 0
7.49153538438341 4.71354573805639 0
7.60050227574557 1.05165229176093 0
7.7110541270397 -2.10897742871512 0
7.82321399203887 1.33449077264619 0
7.937005259841 6.02797143092373 0
8.05245165974627 9.3356769188219 0
8.1695772662055 11.7092275133488 0
8.28840650384044 13.6363530178136 0
8.40896415253714 14.9243097234918 0
8.53127535261343 15.4436600281689 0
8.65536561006143 15.6144685826798 0
8.7812608018665 15.5737481472969 0
8.90898718140339 15.0878817702877 0
9.03857138391101 14.2619036904675 0
9.17004043204671 13.1261318720199 0
9.30342174152147 11.2996406556075 0
9.43874312681693 8.42225906784857 0
9.57603280698574 5.5231594766846 0
9.71531941153606 8.83624412668592 0
9.85663198640188 13.9562018118683 0
10 17.8344185339715 0
10.1454533493752 20.7454629544008 0
10.2930223664349 22.9769153739529 0
10.4427378242741 24.8263254192108 0
10.594630943593 26.318944010824 0
10.748733399207 27.4069471903271 0
10.9050773266526 28.1973805572037 0
11.0636953288883 28.6946682541565 0
11.2246204830937 28.9018694150739 0
11.3878863475669 28.7951466205215 0
11.5535269687227 28.2914273583461 0
11.7215768881925 27.5142173511663 0
11.8920711500272 26.5984538477698 0
12.0650453080052 25.3928016578023 0
12.2405354330466 23.647416878451 0
12.4185781207348 21.9224431314547 0
12.5992104989487 22.2637656993256 0
12.7824702356043 24.8439355209609 0
12.9683955465101 27.847737746549 0
13.1570252033364 30.2772801985562 0
13.3483985417003 32.0801394083405 0
13.5425554693689 33.431705163017 0
13.7395364745809 34.4446181416044 0
13.93938263449 35.2150559954006 0
14.142135623731 35.7489444125175 0
14.34783772311 36.0119589440556 0
14.5565318284219 36.1179444882933 0
14.768261459395 36.4070418302039 0
14.9830707687668 36.938799829562 0
15.2010045514911 37.5103059984801 0
15.4221082540794 38.1308125126852 0
15.6464279840777 38.8772312803731 0
15.874010519682 39.7237343588618 0
16.1049033194925 40.6389701868314 0
16.339154532411 41.5184296121853 0
16.5768130076809 42.1699455141514 0
16.8179283050743 42.6039644331056 0
17.0625507052269 42.9509464282462 0
17.3107312201229 43.1499370191519 0
17.562521603733 43.1945983177441 0
17.8179743628068 43.2911351722993 0
18.077142767822 43.5943212030028 0
18.3400808640934 44.2118179282211 0
18.6068434830429 44.9978092952697 0
18.8774862536339 45.6668684413504 0
19.1520656139715 46.3078292335629 0
19.4306388230721 46.977447447127 0
19.7132639728038 47.5565313665367 0
20 48.1060977964491 0
20.2909066987505 48.7384964597849 0
20.5860447328698 49.4289494811788 0
20.8854756485483 50.0166076053508 0
21.1892618871859 50.5088890059144 0
21.4974667984139 51.1729625649457 0
21.8101546533052 52.0283811079734 0
22.1273906577767 52.831919606238 0
22.4492409661875 53.4933026124868 0
22.7757726951338 54.2115418694491 0
23.1070539374455 55.0357205005133 0
23.443153776385 55.7187983235266 0
23.7841423000544 56.2738635648034 0
24.1300906160104 56.871637241891 0
24.4810708660931 57.4353700068069 0
24.8371562414697 57.9693101823566 0
25.1984209978975 58.5908945102983 0
25.5649404712086 59.203327277649 0
25.9367910930202 59.8070362358871 0
26.3140504066728 60.4471171686584 0
26.6967970834007 61.0491633198009 0
27.0851109387379 61.5857311011822 0
27.4790729491618 62.130646207881 0
27.87876526898 62.6956330495068 0
28.2842712474619 63.1974509126888 0
28.69567544622 63.6836158280322 0
29.1130636568437 64.2000792172354 0
29.53652291879 64.6913436203624 0
29.9661415375336 65.1552436781222 0
30.4020091029823 65.5966253423456 0
30.8442165081588 65.9689385173385 0
31.2928559681555 66.3343559297986 0
31.748021039364 66.7200116504271 0
32.2098066389851 67.0890504621959 0
32.678309064822 67.450267713098 0
33.1536260153617 67.7743073376135 0
33.6358566101486 68.0835972580777 0
34.1251014104537 68.3961874880162 0
34.6214624402457 68.6897371461945 0
35.125043207466 69.0027661266555 0
35.6359487256136 69.3021860601109 0
36.154285535644 69.5778556849609 0
36.6801617281868 69.845815498825 0
37.2136869660859 70.0574881123054 0
37.7549725072677 70.2294430656703 0
38.3041312279429 70.4631033757682 0
38.8612776461442 70.7424608886809 0
39.4265279456075 70.9980529310449 0
40 71.2116475133923 0
40.581813397501 71.4119499246018 0
41.1720894657397 71.6424388404043 0
41.7709512970966 71.8687441784705 0
42.3785237743718 72.0736044786848 0
42.9949335968278 72.276146783739 0
43.6203093066103 72.4749595620054 0
44.2547813155533 72.7034324048407 0
44.8984819323749 72.9461509979488 0
45.5515453902677 73.1650800584217 0
46.2141078748909 73.3791298028237 0
46.88630755277 73.6156418748077 0
47.5682846001088 73.8640805187788 0
48.2601812320209 74.110581879992 0
48.9621417321862 74.333141560377 0
49.6743124829394 74.5379450259303 0
50.3968419957949 74.7691087301693 0
51.1298809424172 75.0140291982599 0
51.8735821860404 75.2546105057117 0
52.6281008133455 75.4972702800616 0
53.3935941668014 75.7389510580922 0
54.1702218774757 75.9755815310784 0
54.9581458983236 76.207993339263 0
55.75753053796 76.4453456684121 0
56.5685424949238 76.6927514126237 0
57.39135089244 76.9495998162258 0
58.2261273136875 77.2044410956905 0
59.07304583758 77.4362059579411 0
59.9322830750673 77.6444503249777 0
60.8040182059646 77.8201441159038 0
61.6884330163176 77.960766277052 0
62.585711936311 78.1150452132011 0
63.496042078728 78.3152879400168 0
64.4196132779702 78.5680018963855 0
65.356618129644 78.8532019363042 0
66.3072520307235 79.1334908472468 0
67.2717132202972 79.4095729735825 0
68.2502028209074 79.6836453180993 0
69.2429248804914 79.9556952172079 0
70.250086414932 80.232807085035 0
71.2718974512271 80.496520360475 0
72.3085710712881 80.7429188353226 0
73.3603234563737 80.985487428292 0
74.4273739321717 81.2269883586308 0
75.5099450145355 81.4574697334953 0
76.6082624558859 81.6823491561445 0
77.7225552922885 81.9094631417134 0
78.853055891215 82.1315930831942 0
80 82.3546158524773 0
81.1636267950019 82.573018209284 0
82.3441789314794 82.7706744304614 0
83.5419025941931 82.956500911769 0
84.7570475487436 83.1449232624781 0
85.9898671936557 83.3044504575019 0
87.2406186132206 83.4428068734389 0
88.5095626311066 83.5773501173296 0
89.7969638647499 83.6892375670885 0
91.1030907805353 83.7863371796833 0
92.4282157497818 83.8694213544374 0
93.7726151055401 83.9445715002425 0
95.1365692002177 84.0355435941857 0
96.5203624640417 84.1055311174306 0
97.9242834643725 84.1489018406185 0
99.3486249658787 84.193829392428 0
100.79368399159 84.2356420116618 0
102.259761884834 84.2540100260768 0
103.747164372081 84.2533562543615 0
105.256201626691 84.2480933312177 0
106.787188333603 84.2272633104914 0
108.340443754951 84.2179773645312 0
109.916291796647 84.2229696176059 0
111.51506107592 84.2094627834598 0
113.137084989848 84.1796402889711 0
114.78270178488 84.1421327942626 0
116.452254627375 84.1090903103597 0
118.14609167516 84.0772362223836 0
119.864566150135 84.0233346441473 0
121.608036411929 83.9186793077847 0
123.376866032635 83.7953590284947 0
125.171423872622 83.7114121745684 0
126.992084157456 83.6551678753672 0
128.83922655594 83.6014698474479 0
130.713236259288 83.5665279002539 0
132.614504061447 83.5483520841862 0
134.543426440594 83.4824929784906 0
136.500405641815 83.3311214869988 0
138.485849760983 83.1559780046532 0
140.500172829864 83.0493281365167 0
142.543794902454 83.017907955958 0
144.617142142576 82.9963952775895 0
146.720646912747 82.9654287884797 0
148.854747864343 82.934185651264 0
151.019890029071 82.8933112375364 0
153.216524911772 82.8710585260177 0
155.445110584577 82.8413742549995 0
157.70611178243 82.778027033373 0
160 82.6648411595522 0
162.327253590004 82.467792303364 0
164.688357862959 82.2226874760817 0
167.083805188386 81.9707749204523 0
169.514095097487 81.7355375273525 0
171.979734387311 81.5802292091312 0
174.481237226441 81.5145950151925 0
177.019125262213 81.4913021454949 0
179.5939277295 81.5113205814804 0
182.206181561071 81.5381939881158 0
184.856431499564 81.5377106732484 0
187.54523021108 81.5293958827001 0
190.273138400435 81.5007549415728 0
193.040724928083 81.4458586897831 0
195.848566928745 81.359236195876 0
198.697249931757 81.2330470829681 0
201.58736798318 81.123917841199 0
204.519523769669 81.0741947449648 0
207.494328744162 81.053318686434 0
210.512403253382 81.0500902696863 0
213.574376667206 81.0404848442614 0
216.680887509903 81.0320000867272 0
219.832583593294 81.0540559733104 0
223.03012215184 81.0544718428321 0
226.274169979695 81.0021758735309 0
229.56540356976 80.9338486846607 0
232.90450925475 80.8925419727164 0
236.29218335032 80.8914001578542 0
239.729132300269 80.9326269256098 0
243.216072823858 80.9499489564143 0
246.753732065271 80.90150201593 0
250.342847745244 80.8291301037736 0
253.984168314912 80.7847229312872 0
257.678453111881 80.7669847353972 0
261.426472518576 80.7276358790337 0
265.229008122894 80.674208362041 0
269.086852881189 80.6342093760305 0
273.00081128363 80.6055955073376 0
276.971699521966 80.5886242308564 0
281.000345659728 80.5826379883 0
285.087589804909 80.5356756325537 0
289.234284285152 80.3961857395931 0
293.441293825495 80.2277398048815 0
297.709495728687 80.1465219956913 0
302.039780058142 80.1402813870954 0
306.433049823544 80.1114422836408 0
310.890221169154 80.0419214453147 0
315.41222356486 79.9658373582035 0
320 79.884239877689 0
324.654507180007 79.7886965464273 0
329.376715725918 79.6865563145939 0
334.167610376772 79.5940219373571 0
339.028190194974 79.5155806500247 0
343.959468774623 79.4495811265781 0
348.962474452882 79.407039061929 0
354.038250524427 79.3827385718557 0
359.187855458999 79.3732118152401 0
364.412363122141 79.3802512020533 0
369.712862999127 79.4065559368917 0
375.090460422161 79.4498023701747 0
380.546276800871 79.5002522748414 0
386.081449856167 79.5595040624437 0
391.69713385749 79.6249831668203 0
397.394499863515 79.6955399279326 0
403.174735966359 79.7731162009225 0
409.039047539338 79.8549872844074 0
414.988657488323 79.9398906566509 0
421.024806506764 80.0269242337879 0
427.148753334411 80.1110573921956 0
433.361775019806 80.1918377141639 0
439.665167186588 80.2698401868071 0
446.06024430368 80.3402220432971 0
452.54833995939 80.4000743483039 0
459.13080713952 80.4524473270632 0
465.8090185095 80.4965604974177 0
472.58436670064 80.5261565713528 0
479.458264600538 80.5453894639151 0
486.432145647717 80.5628386176684 0
493.507464130541 80.5685532336106 0
500.685695490488 80.555374439903 0
507.968336629824 80.5375220660216 0
515.356906223761 80.5152364655586 0
522.852945037152 80.4782397955864 0
530.458016245788 80.4312112536775 0
538.173705762377 80.3815827231374 0
546.001622567259 80.3267935760633 0
553.943399043932 80.2702816442102 0
562.000691319456 80.2104694783628 0
570.175179609817 80.1513229256349 0
578.468568570305 80.0939521764634 0
586.88258765099 80.0373580262201 0
595.418991457374 79.9887881497339 0
604.079560116284 79.9499946275012 0
612.866099647087 79.9245239847995 0
621.780442338308 79.9098366258086 0
630.82444712972 79.9038618931628 0
640 79.90820351071 0
649.309014360015 79.9174988816555 0
658.753431451835 79.937601738279 0
668.335220753545 79.9763748237056 0
678.056380389949 80.0201384505284 0
687.918937549246 80.0638725796042 0
697.924948905765 80.1103739205021 0
708.076501048853 80.1533165380077 0
718.375710917999 80.1954160604218 0
728.824726244283 80.2371705927158 0
739.425725998255 80.2733636571657 0
750.180920844321 80.3059816262804 0
761.092553601741 80.3371939663061 0
772.162899712334 80.3683211409822 0
783.39426771498 80.3994586648374 0
794.78899972703 80.4280409943315 0
806.349471932719 80.4586004554244 0
818.078095078676 80.4867227084147 0
829.977314976646 80.505246108067 0
842.049613013528 80.5218586277022 0
854.297506668822 80.5461288270084 0
866.723550039611 80.57258653117 0
879.330334373177 80.6017744488932 0
892.12048860736 80.6348399807693 0
905.096679918781 80.6610925575313 0
918.26161427904 80.6780811035128 0
931.618037019 80.6920521748758 0
945.16873340128 80.6996275788832 0
958.916529201076 80.7007967703949 0
972.864291295434 80.6986126686425 0
987.014928261082 80.6916322513555 0
1001.37139098098 80.6833969565669 0
1015.93667325965 80.6760417947896 0
1030.71381244752 80.6603857374189 0
1045.7058900743 80.6389165829816 0
1060.91603249158 80.6284078330064 0
1076.34741152475 80.6274609697584 0
1092.00324513452 80.6321272831292 0
1107.88679808786 80.653851227559 0
1124.00138263891 80.6927638092727 0
1140.35035921963 80.7357676169214 0
1156.93713714061 80.7767519561436 0
1173.76517530198 80.8094122798106 0
1190.83798291475 80.8258251738723 0
1208.15912023257 80.8190170628194 0
1225.73219929417 80.7890619712733 0
1243.56088467662 80.7339343678999 0
1261.64889425944 80.6560999025486 0
1280 80.5623287802183 0
1298.61802872003 80.462463733914 0
1317.50686290367 80.3720818344532 0
1336.67044150709 80.3058656109816 0
1356.1127607799 80.2677657325006 0
1375.83787509849 80.2706634122198 0
1395.84989781153 80.3248858171547 0
1416.15300209771 80.4109600879846 0
1436.751421836 80.5106013138724 0
1457.64945248857 80.611749380247 0
1478.85145199651 80.6967087857527 0
1500.36184168864 80.7543997392677 0
1522.18510720348 80.785894260399 0
1544.32579942467 80.7961070949299 0
1566.78853542996 80.787151031703 0
1589.57799945406 80.764148444583 0
1612.69894386544 80.746600687265 0
1636.15619015735 80.7501521253232 0
1659.95462995329 80.7731050396468 0
1684.09922602706 80.8161634839319 0
1708.59501333764 80.8765128666363 0
1733.44710007922 80.9390011769236 0
1758.66066874635 81.0050947517117 0
1784.24097721472 81.0717220783074 0
1810.19335983756 81.1343976438591 0
1836.52322855808 81.1884063906387 0
1863.236074038 81.2228588026961 0
1890.33746680256 81.2352364607818 0
1917.83305840215 81.2146044630595 0
1945.72858259087 81.1474560778796 0
1974.02985652216 81.0371122882267 0
2002.74278196195 80.9036691353031 0
2031.87334651929 80.7740948835011 0
2061.42762489505 80.6743959300772 0
2091.41178014861 80.620348581446 0
2121.83206498315 80.5881134793546 0
2152.69482304951 80.5389796202867 0
2184.00649026904 80.4450558734618 0
2215.77359617573 80.2709102175579 0
2248.00276527782 79.999156801763 0
2280.70071843927 79.6539215523119 0
2313.87427428122 79.288470447309 0
2347.53035060396 78.9668900716808 0
2381.6759658295 78.7388691957973 0
2416.31824046513 78.6185792319652 0
2451.46439858835 78.5803564505574 0
2487.12176935323 78.5895963966571 0
2523.29778851888 78.6266750771128 0
2560 78.6822890969298 0
2597.23605744006 78.7531452256519 0
2635.01372580734 78.830768246848 0
2673.34088301418 78.9140001310014 0
2712.2255215598 79.0007033259508 0
2751.67575019698 79.0834581493751 0
2791.69979562306 79.152929303614 0
2832.30600419541 79.1982330899618 0
2873.50284367199 79.2229674584319 0
2915.29890497713 79.240612846517 0
2957.70290399302 79.2763234994558 0
3000.72368337728 79.3380699311931 0
3044.37021440697 79.4100332707172 0
3088.65159884934 79.4768193012705 0
3133.57707085992 79.5264257976261 0
3179.15599890812 79.552306499516 0
3225.39788773088 79.5594542249243 0
3272.3123803147 79.5581967295732 0
3319.90925990658 79.5541731665419 0
3368.19845205411 79.5614889761959 0
3417.19002667529 79.5745113483416 0
3466.89420015845 79.5694129075283 0
3517.32133749271 79.5592962194684 0
3568.48195442944 79.5767449778564 0
3620.38671967512 79.6277319631812 0
3673.04645711616 79.6708011613825 0
3726.472148076 79.6642161600065 0
3780.67493360512 79.625151448848 0
3835.66611680431 79.6022593178212 0
3891.45716518173 79.5997106509829 0
3948.05971304433 79.5720859810209 0
4005.4855639239 79.500010477064 0
4063.74669303859 79.4328252342467 0
4122.85524979009 79.4398565558821 0
4182.82356029722 79.5217592591436 0
4243.6641299663 79.6137749900821 0
4305.38964609902 79.6862404520749 0
4368.01298053808 79.7666495854923 0
4431.54719235145 79.8743013671157 0
4496.00553055565 79.9732178903894 0
4561.40143687854 80.0358759864454 0
4627.74854856243 80.1018572709245 0
4695.06070120792 80.1860960655664 0
4763.35193165899 80.2433247395319 0
4832.63648093027 80.2743817147438 0
4902.9287971767 80.327728959264 0
4974.24353870646 80.3848687255048 0
5046.59557703776 80.4168656794764 0
5120 80.4914047343477 0
5194.47211488012 80.6379419388379 0
5270.02745161468 80.7694120879333 0
5346.68176602836 80.8224008502861 0
5424.45104311959 80.7422284666157 0
5503.35150039396 80.4298289829813 0
5583.39959124612 79.9272191658224 0
5664.61200839083 79.4811285349452 0
5747.00568734399 79.2694027473514 0
5830.59780995426 79.294053866804 0
5915.40580798604 79.4628199803178 0
6001.44736675456 79.6095111577616 0
6088.74042881393 79.6990234902777 0
6177.30319769867 79.7867881139785 0
6267.15414171983 79.7925019975654 0
6358.31199781624 79.7090594374005 0
6450.79577546175 79.6700475797698 0
6544.6247606294 79.6543855723091 0
6639.81851981317 79.622453176701 0
6736.39690410823 79.6295054518771 0
6834.38005335057 79.6089268479619 0
6933.78840031689 79.517049326008 0
7034.64267498542 79.4084492213415 0
7136.96390885887 79.2410615208186 0
7240.77343935025 79.0451458815074 0
7346.09291423232 78.9318477058987 0
7452.944296152 78.8905734967824 0
7561.34986721024 78.9481367441018 0
7671.33223360861 79.1042597271412 0
7782.91433036346 79.2485288756547 0
7896.11942608866 79.3172998755688 0
8010.97112784781 79.2910019255062 0
8127.49338607718 79.2518369584329 0
8245.71049958018 79.2854363231299 0
8365.64712059443 79.3568896119592 0
8487.3282599326 79.4164385625336 0
8610.77929219804 79.4395292255636 0
8736.02596107615 79.4634341283376 0
8863.0943847029 79.5089454157969 0
8992.01106111129 79.5843480857404 0
9122.80287375708 79.6727878895364 0
9255.49709712487 79.7257487436113 0
9390.12140241583 79.7109681717137 0
9526.70386331798 79.6304343386554 0
9665.27296186054 79.5530112368327 0
9805.85759435339 79.5599331675997 0
9948.48707741293 79.6502310881047 0
10093.1911540755 79.7178769838213 0
10240 79.6887905612513 0
10388.9442297602 79.5972565312397 0
10540.0549032294 79.5495084097703 0
10693.3635320567 79.5971408074831 0
10848.9020862392 79.6502991698643 0
11006.7030007879 79.6191216364423 0
11166.7991824922 79.4912567895151 0
11329.2240167817 79.3484011055766 0
11494.011374688 79.2808052765688 0
11661.1956199085 79.2418716602753 0
11830.8116159721 79.0478901908063 0
12002.8947335091 78.6432254617472 0
12177.4808576279 78.3514719333299 0
12354.6063953973 78.4071055140773 0
12534.3082834397 78.4893013784887 0
12716.6239956325 78.2959013707889 0
12901.5915509235 77.9819610292104 0
13089.2495212588 77.871539722291 0
13279.6370396263 77.8919831611307 0
13472.7938082165 77.7137266825123 0
13668.7601067011 77.3683651098203 0
13867.5768006338 77.2906092050674 0
14069.2853499708 77.5344494713924 0
14273.9278177177 77.6920687888233 0
14481.5468787005 77.7103544191894 0
14692.1858284646 77.8705324865363 0
14905.888592304 78.186510657085 0
15122.6997344205 78.3761807410302 0
15342.6644672172 78.4396484269324 0
15565.8286607269 78.7121547543547 0
15792.2388521773 79.0848023416079 0
16021.9422556956 79.1460379795995 0
16254.9867721544 79.0342260124208 0
16491.4209991604 79.1009696159096 0
16731.2942411889 79.2343028506536 0
