* Frequency Power response 0
5 13.9847428185518 0
5.07272667468762 13.9017951423878 0
5.14651118321746 13.7676144242753 0
5.22136891213707 13.6279724586416 0
5.29731547179648 13.5029544657718 0
5.37436669960348 13.4037065902987 0
5.45253866332629 13.3192321327652 0
5.53184766444417 13.208993263214 0
5.61231024154687 13.061863369106 0
5.69394317378346 12.9214373590919 0
5.77676348436136 12.827638436185 0
5.86078844409626 12.7406663120566 0
5.9460355750136 12.5910503337398 0
6.03252265400261 12.4166931049103 0
6.12026771652328 12.2807821484863 0
6.20928906036742 12.1386999607911 0
6.29960524947437 11.8866152853368 0
6.39123511780215 11.5189587480422 0
6.48419777325505 11.0955413238003 0
6.57851260166819 10.761826163929 0
6.67419927085017 10.7032887197367 0
6.77127773468446 10.8402621145371 0
6.86976823729045 11.0083919969906 0
6.969691317245 10.9818303878765 0
7.07106781186548 10.549295009293 0
7.173918861555 9.8109812384985 0
7.27826591421094 8.80484511370784 0
7.3841307296975 7.22112788576149 0
7.49153538438341 4.71354573805639 0
7.60050227574557 1.05165229176093 0
7.7110541270397 -2.10897742871512 0
7.82321399203887 1.33449077264619 0
7.937005259841 6.02797143092373 0
8.05245165974627 9.3356769188219 0
8.1695772662055 11.7092275133488 0
8.28840650384044 13.6363530178136 0
8.40896415253714 14.9243097234918 0
8.53127535261343 15.4436600281689 0
8.65536561006143 15.6144685826798 0
8.7812608018665 15.5737481472969 0
8.90898718140339 15.0878817702877 0
9.03857138391101 14.2619036904675 0
9.17004043204671 13.1261318720199 0
9.30342174152147 11.2996406556075 0
9.43874312681693 8.42225906784857 0
9.57603280698574 5.5231594766846 0
9.71531941153606 8.83624412668592 0
9.85663198640188 13.9562018118683 0
10 17.8344185339715 0
10.1454533493752 20.7454629544008 0
10.2930223664349 22.9769153739529 0
10.4427378242741 24.8263254192108 0
10.594630943593 26.318944010824 0
10.748733399207 27.4069471903271 0
10.9050773266526 28.1973805572037 0
11.0636953288883 28.6946682541565 0
11.2246204830937 28.9018694150739 0
11.3878863475669 28.7951466205215 0
11.5535269687227 28.2914273583461 0
11.7215768881925 27.5142173511663 0
11.8920711500272 26.5984538477698 0
12.0650453080052 25.3928016578023 0
12.2405354330466 23.647416878451 0
12.4185781207348 21.9224431314547 0
12.5992104989487 22.2637656993256 0
12.7824702356043 24.8439355209609 0
12.9683955465101 27.847737746549 0
13.1570252033364 30.2772801985562 0
13.3483985417003 32.0801394083405 0
13.5425554693689 33.431705163017 0
13.7395364745809 34.4446181416044 0
13.93938263449 35.2150559954006 0
14.142135623731 35.7489444125175 0
14.34783772311 36.0119589440556 0
14.5565318284219 36.1179444882933 0
14.768261459395 36.4070418302039 0
14.9830707687668 36.938799829562 0
15.2010045514911 37.5103059984801 0
15.4221082540794 38.1308125126852 0
15.6464279840777 38.8772312803731 0
15.874010519682 39.7237343588618 0
16.1049033194925 40.6389701868314 0
16.339154532411 41.5184296121853 0
16.5768130076809 42.1699455141514 0
16.8179283050743 42.6039644331056 0
17.0625507052269 42.9509464282462 0
17.3107312201229 43.1499370191519 0
17.562521603733 43.1945983177441 0
17.8179743628068 43.2911351722993 0
18.077142767822 43.5943212030028 0
18.3400808640934 44.2118179282211 0
18.6068434830429 44.9978092952697 0
18.8774862536339 45.6668684413504 0
19.1520656139715 46.3078292335629 0
19.4306388230721 46.977447447127 0
19.7132639728038 47.5565313665367 0
20 48.1060977964491 0
20.2909066987505 48.7384964597849 0
20.5860447328698 49.4289494811788 0
20.8854756485483 50.0166076053508 0
21.1892618871859 50.5088890059144 0
21.4974667984139 51.1729625649457 0
21.8101546533052 52.0283811079734 0
22.1273906577767 52.831919606238 0
22.4492409661875 53.4933026124868 0
22.7757726951338 54.2115418694491 0
23.1070539374455 55.0357205005133 0
23.443153776385 55.7187983235266 0
23.7841423000544 56.2738635648034 0
24.1300906160104 56.871637241891 0
24.4810708660931 57.4353700068069 0
24.8371562414697 57.9693101823566 0
25.1984209978975 58.5908945102983 0
25.5649404712086 59.203327277649 0
25.9367910930202 59.8070362358871 0
26.3140504066728 60.4471171686584 0
26.6967970834007 61.0491633198009 0
27.0851109387379 61.5857311011822 0
27.4790729491618 62.130646207881 0
27.87876526898 62.6956330495068 0
28.2842712474619 63.1974509126888 0
28.69567544622 63.6836158280322 0
29.1130636568437 64.2000792172354 0
29.53652291879 64.6913436203624 0
29.9661415375336 65.1552436781222 0
30.4020091029823 65.5966253423455 0
30.8442165081588 65.9689385173385 0
31.2928559681555 66.3343559297986 0
31.748021039364 66.7200116504271 0
32.2098066389851 67.0890504621959 0
32.678309064822 67.450267713098 0
33.1536260153617 67.7743073376135 0
33.6358566101486 68.0835972580777 0
34.1251014104537 68.3961874880162 0
34.6214624402457 68.6897371461945 0
35.125043207466 69.0027661266555 0
35.6359487256136 69.3021860601109 0
36.154285535644 69.5778556849609 0
36.6801617281868 69.845815498825 0
37.2136869660859 70.0574881123054 0
37.7549725072677 70.2294430656703 0
38.3041312279429 70.4631033757682 0
38.8612776461442 70.7424608886809 0
39.4265279456075 70.9980533122118 0
40 71.2116576262495 0
40.581813397501 71.411914854614 0
41.1720894657397 71.6421744905349 0
41.7709512970966 71.8678978697677 0
42.3785237743718 72.071922646742 0
42.9949335968278 72.273695711987 0
43.6203093066103 72.4715731368823 0
44.2547813155533 72.6988053285879 0
44.8984819323749 72.9400646654686 0
45.5515453902677 73.1572616336219 0
46.2141078748909 73.3693861906733 0
46.88630755277 73.6038524865753 0
47.5682846001088 73.849918482691 0
48.2601812320209 74.0937268626171 0
48.9621417321862 74.313465700538 0
49.6743124829394 74.5149775940203 0
50.3968419957949 74.7428747095391 0
51.1298809424172 74.984566987126 0
51.8735821860404 75.221149951754 0
52.6281008133455 75.4595670628107 0
53.3935941668014 75.6966123334221 0
54.1702218774757 75.9284283193058 0
54.9581458983236 76.1564846091675 0
55.75753053796 76.3883585012774 0
56.5685424949238 76.6302727048622 0
57.39135089244 76.8824853837502 0
58.2261273136875 77.1310958785942 0
59.07304583758 77.3557282917353 0
59.9322830750673 77.5573854939201 0
60.8040182059646 77.7260317205417 0
61.6884330163176 77.8587351729972 0
62.585711936311 78.0057172496504 0
63.496042078728 78.1988846323457 0
64.4196132779702 78.4436057825823 0
65.356618129644 78.7215331558894 0
66.3072520307235 78.9938017657229 0
67.2717132202972 79.2598948978692 0
68.2502028209074 79.5247342977325 0
69.2429248804914 79.78820486564 0
70.250086414932 80.0548255866218 0
71.2718974512271 80.3083562198147 0
72.3085710712881 80.5453763825601 0
73.3603234563737 80.7773103555827 0
74.4273739321717 81.0081146888505 0
75.5099450145355 81.2285457588976 0
76.6082624558859 81.4424396944391 0
77.7225552922885 81.6581971024078 0
78.853055891215 81.8685254734034 0
80 82.0798516892871 0
81.1636267950019 82.28763865246 0
82.3441789314794 82.4735368791415 0
83.5419025941931 82.6448193275328 0
84.7570475487436 82.8190069796172 0
85.9898671936557 82.9667515324121 0
87.2406186132206 83.0939616556491 0
88.5095626311066 83.2151754101339 0
89.7969638647499 83.3110162940723 0
91.1030907805353 83.3928529210853 0
92.4282157497818 83.4640452436982 0
93.7726151055401 83.5270601948482 0
95.1365692002177 83.6021420482834 0
96.5203624640417 83.6555843589746 0
97.9242834643725 83.6849180128659 0
99.3486249658787 83.7164662753202 0
100.79368399159 83.7421298021552 0
102.259761884834 83.7466268529545 0
103.747164372081 83.7331668545538 0
105.256201626691 83.7119464779638 0
106.787188333603 83.6755508953894 0
108.340443754951 83.6519414048198 0
109.916291796647 83.6414988539148 0
111.51506107592 83.6116119334844 0
113.137084989848 83.5639892637304 0
114.78270178488 83.5114104466291 0
116.452254627375 83.4639053299336 0
118.14609167516 83.4156004898001 0
119.864566150135 83.348098464979 0
121.608036411929 83.2303347222611 0
123.376866032635 83.0906977149573 0
125.171423872622 82.9858049236809 0
126.992084157456 82.9110545043762 0
128.83922655594 82.8413118415502 0
130.713236259288 82.7916561789653 0
132.614504061447 82.7583409358084 0
134.543426440594 82.6755235419749 0
136.500405641815 82.5079919942701 0
138.485849760983 82.3161419750985 0
140.500172829864 82.19189238696 0
142.543794902454 82.144002443022 0
144.617142142576 82.1083212673835 0
146.720646912747 82.0618134158084 0
148.854747864343 82.0120223807196 0
151.019890029071 81.955296708711 0
153.216524911772 81.9152715704496 0
155.445110584577 81.8677262960374 0
157.70611178243 81.7923433058117 0
160 81.6614697501507 0
162.327253590004 81.4429123593483 0
164.688357862959 81.1843370413022 0
167.083805188386 80.9213936311238 0
169.514095097487 80.6680820653244 0
171.979734387311 80.4910278844437 0
174.481237226441 80.4102346743449 0
177.019125262213 80.3753805292494 0
179.5939277295 80.3821516575987 0
182.206181561071 80.3952014764186 0
184.856431499564 80.3770165260004 0
187.54523021108 80.3459412480949 0
190.273138400435 80.2966628472653 0
193.040724928083 80.2300668354593 0
195.848566928745 80.1352871246165 0
198.697249931757 79.9925354444485 0
201.58736798318 79.861436320066 0
204.519523769669 79.7898703494844 0
207.494328744162 79.7470021044048 0
210.512403253382 79.7284684981819 0
213.574376667206 79.7099464348661 0
216.680887509903 79.6854641723393 0
219.832583593294 79.6862367370048 0
223.03012215184 79.6690144967658 0
226.274169979695 79.6014321810975 0
229.56540356976 79.5144526663756 0
232.90450925475 79.4527125770729 0
236.29218335032 79.4355773973535 0
239.729132300269 79.4574194070798 0
243.216072823858 79.4545963663521 0
246.753732065271 79.3884689534562 0
250.342847745244 79.2944380143794 0
253.984168314912 79.2255722380724 0
257.678453111881 79.1870682297658 0
261.426472518576 79.1275913274126 0
265.229008122894 79.0491270143597 0
269.086852881189 78.9824854899835 0
273.00081128363 78.9277226255919 0
276.971699521966 78.8835471350274 0
281.000345659728 78.8493021366953 0
285.087589804909 78.7720492080607 0
289.234284285152 78.5997655681221 0
293.441293825495 78.3965424688937 0
297.709495728687 78.2788820837917 0
302.039780058142 78.2342963060768 0
306.433049823544 78.1636886894051 0
310.890221169154 78.0489100610785 0
315.41222356486 77.9257654672605 0
320 77.7947969517035 0
324.654507180007 77.6447902695503 0
329.376715725918 77.4857852496757 0
334.167610376772 77.3347115054041 0
339.028190194974 77.1959825781885 0
343.959468774623 77.069103836865 0
348.962474452882 76.9579633696491 0
354.038250524427 76.8669300879833 0
359.187855458999 76.7962013449588 0
364.412363122141 76.7397920134672 0
369.712862999127 76.6955730331173 0
375.090460422161 76.6702238408462 0
380.546276800871 76.6585249489354 0
386.081449856167 76.6560227418882 0
391.69713385749 76.6649666699788 0
397.394499863515 76.6824663171769 0
403.174735966359 76.7072764833786 0
409.039047539338 76.7415882760723 0
414.988657488323 76.7825233638751 0
421.024806506764 76.8273582294691 0
427.148753334411 76.8734562674887 0
433.361775019806 76.9175039163059 0
439.665167186588 76.9588804511926 0
446.06024430368 76.9937228176608 0
452.54833995939 77.0210511024988 0
459.13080713952 77.0408356594782 0
465.8090185095 77.0495006713876 0
472.58436670064 77.0486665365839 0
479.458264600538 77.0389079928727 0
486.432145647717 77.0221936196484 0
493.507464130541 76.9970477128064 0
500.685695490488 76.9546963613716 0
507.968336629824 76.8978741019764 0
515.356906223761 76.8353721432249 0
522.852945037152 76.7624729696416 0
530.458016245788 76.6782613184912 0
538.173705762377 76.5891246133649 0
546.001622567259 76.4945946918423 0
553.943399043932 76.3955664948536 0
562.000691319456 76.2931262413038 0
570.175179609817 76.1897325117174 0
578.468568570305 76.08760244672 0
586.88258765099 75.9885738550022 0
595.418991457374 75.8960949011383 0
604.079560116284 75.8116813716538 0
612.866099647087 75.7388097373657 0
621.780442338308 75.6786109557332 0
630.82444712972 75.6307742417635 0
640 75.5973722737568 0
649.309014360015 75.5810541423034 0
658.753431451835 75.5785655796842 0
668.335220753545 75.5840133939917 0
678.056380389949 75.5944281635651 0
687.918937549246 75.6104185230303 0
697.924948905765 75.6292423056206 0
708.076501048853 75.6437230027163 0
718.375710917999 75.6542516965913 0
728.824726244283 75.6673811180902 0
739.425725998255 75.6770900984992 0
750.180920844321 75.6757689543679 0
761.092553601741 75.6695667108893 0
772.162899712334 75.6622056366488 0
783.39426771498 75.6509296253113 0
794.78899972703 75.635172810392 0
806.349471932719 75.615120484366 0
818.078095078676 75.5919582915968 0
829.977314976646 75.5635242204154 0
842.049613013528 75.531141532288 0
854.297506668822 75.5003128960335 0
866.723550039611 75.4750543757393 0
879.330334373177 75.4554794951219 0
892.12048860736 75.4379995540509 0
905.096679918781 75.4216810392405 0
918.26161427904 75.4077226922712 0
931.618037019 75.3955004981911 0
945.16873340128 75.3852885974744 0
958.916529201076 75.3781212982533 0
972.864291295434 75.3676944787978 0
987.014928261082 75.3489842335908 0
1001.37139098098 75.326847930053 0
1015.93667325965 75.3032954070778 0
1030.71381244752 75.2725965081525 0
1045.7058900743 75.2362032562494 0
1060.91603249158 75.1984629408524 0
1076.34741152475 75.1586041004925 0
1092.00324513452 75.1191754025922 0
1107.88679808786 75.0811383661405 0
1124.00138263891 75.0417632989579 0
1140.35035921963 74.9978922118079 0
1156.93713714061 74.9456983564314 0
1173.76517530198 74.8835341220047 0
1190.83798291475 74.8072855010607 0
1208.15912023257 74.7128739087868 0
1225.73219929417 74.6020657505631 0
1243.56088467662 74.4787758014653 0
1261.64889425944 74.3510173082075 0
1280 74.2295265416752 0
1298.61802872003 74.126569359265 0
1317.50686290367 74.0571048596776 0
1336.67044150709 74.0348175104669 0
1356.1127607799 74.061724475703 0
1375.83787509849 74.1329816569009 0
1395.84989781153 74.2354368582602 0
1416.15300209771 74.3454718012293 0
1436.751421836 74.4429305988808 0
1457.64945248857 74.5091961681821 0
1478.85145199651 74.5272955772548 0
1500.36184168864 74.4933586588655 0
1522.18510720348 74.4115836075339 0
1544.32579942467 74.2927834706637 0
1566.78853542996 74.1566056726171 0
1589.57799945406 74.0225418369585 0
1612.69894386544 73.912362436358 0
1636.15619015735 73.8425229523336 0
1659.95462995329 73.813033523079 0
1684.09922602706 73.8155306324078 0
1708.59501333764 73.8344906201288 0
1733.44710007922 73.8467564583051 0
1758.66066874635 73.8454080659274 0
1784.24097721472 73.8353551798868 0
1810.19335983756 73.8205338817636 0
1836.52322855808 73.808000957467 0
1863.236074038 73.8041449432129 0
1890.33746680256 73.8077436151823 0
1917.83305840215 73.8038228561087 0
1945.72858259087 73.7686316689828 0
1974.02985652216 73.686160912954 0
2002.74278196195 73.5576730745824 0
2031.87334651929 73.3956230797886 0
2061.42762489505 73.2206746631709 0
2091.41178014861 73.066726086855 0
2121.83206498315 72.9498841763726 0
2152.69482304951 72.8615909323438 0
2184.00649026904 72.7844232894607 0
2215.77359617573 72.6829332853925 0
2248.00276527782 72.5194467680253 0
2280.70071843927 72.2822371860101 0
2313.87427428122 71.9889860898107 0
2347.53035060396 71.6831655963002 0
2381.6759658295 71.4202844725842 0
2416.31824046513 71.2452887983089 0
2451.46439858835 71.1779731005077 0
2487.12176935323 71.210759989348 0
2523.29778851888 71.3160388665043 0
2560 71.457086609925 0
2597.23605744006 71.6032564015295 0
2635.01372580734 71.7347851181128 0
2673.34088301418 71.8439412991894 0
2712.2255215598 71.932854169137 0
2751.67575019698 72.0196795879076 0
2791.69979562306 72.1286091400282 0
2832.30600419541 72.2634615171478 0
2873.50284367199 72.4125299201716 0
2915.29890497713 72.5571826568472 0
2957.70290399302 72.6809129276319 0
3000.72368337728 72.7682896128244 0
3044.37021440697 72.8129138667161 0
3088.65159884934 72.8260207442855 0
3133.57707085992 72.8278108084965 0
3179.15599890812 72.824662383237 0
3225.39788773088 72.810955400839 0
3272.3123803147 72.7903725985811 0
3319.90925990658 72.7748568715679 0
3368.19845205411 72.7705678521603 0
3417.19002667529 72.7680730768081 0
3466.89420015845 72.7534267314338 0
3517.32133749271 72.7308434125466 0
3568.48195442944 72.7179811462869 0
3620.38671967512 72.7180285992049 0
3673.04645711616 72.6986986531326 0
3726.472148076 72.6298260202278 0
3780.67493360512 72.5362032731454 0
3835.66611680431 72.4736237267659 0
3891.45716518173 72.4545413702738 0
3948.05971304433 72.4364334571546 0
4005.4855639239 72.392739762455 0
4063.74669303859 72.3606174987504 0
4122.85524979009 72.3977662494383 0
4182.82356029722 72.5008460652311 0
4243.6641299663 72.6045241174886 0
4305.38964609902 72.6725528692024 0
4368.01298053808 72.7361304915612 0
4431.54719235145 72.8227359181483 0
4496.00553055565 72.8936953386446 0
4561.40143687854 72.8999479307542 0
4627.74854856243 72.8673675216724 0
4695.06070120792 72.8427162657852 0
4763.35193165899 72.8060962217609 0
4832.63648093027 72.7369515392296 0
4902.9287971767 72.6894749120235 0
4974.24353870646 72.7347509932847 0
5046.59557703776 72.8890494288515 0
5120 73.1047957153903 0
5194.47211488012 73.3061828092474 0
5270.02745161468 73.4326959078655 0
5346.68176602836 73.4508034310381 0
5424.45104311959 73.3724597302817 0
5503.35150039396 73.2809752597982 0
5583.39959124612 73.2353815571072 0
5664.61200839083 73.1835989462069 0
5747.00568734399 73.1092500642964 0
5830.59780995426 73.1121438671661 0
5915.40580798604 73.2117147044651 0
6001.44736675456 73.3061776236538 0
6088.74042881393 73.3843557898423 0
6177.30319769867 73.4536821373146 0
6267.15414171983 73.4133740561846 0
6358.31199781624 73.2723640034968 0
6450.79577546175 73.1471186927134 0
6544.6247606294 73.0358127845851 0
6639.81851981317 72.9635102471246 0
6736.39690410823 72.9931621764692 0
6834.38005335057 73.0289772181231 0
6933.78840031689 73.0311243866692 0
7034.64267498542 73.0252161582462 0
7136.96390885887 72.9450911856277 0
7240.77343935025 72.8227215876668 0
7346.09291423232 72.7201992828115 0
7452.944296152 72.6306770570633 0
7561.34986721024 72.6139822315943 0
7671.33223360861 72.666853891009 0
7782.91433036346 72.6944754449912 0
7896.11942608866 72.6351512408045 0
8010.97112784781 72.483838397036 0
8127.49338607718 72.3384692453415 0
8245.71049958018 72.2741538456005 0
8365.64712059443 72.2783655300014 0
8487.3282599326 72.3181762150131 0
8610.77929219804 72.352586601181 0
8736.02596107615 72.3800597735933 0
8863.0943847029 72.3976340328987 0
8992.01106111129 72.4246648640206 0
9122.80287375708 72.4701063337643 0
9255.49709712487 72.4936011232925 0
9390.12140241583 72.4342404236613 0
9526.70386331798 72.2792606680458 0
9665.27296186054 72.1030539898971 0
9805.85759435339 72.0008957415889 0
9948.48707741293 71.9844555229224 0
10093.1911540755 71.9504275319889 0
10240 71.8274316582479 0
10388.9442297602 71.6612847112106 0
10540.0549032294 71.5803013120241 0
10693.3635320567 71.6507343144602 0
10848.9020862392 71.7649561933443 0
11006.7030007879 71.7886907899392 0
11166.7991824922 71.696032269361 0
11329.2240167817 71.5770080970776 0
11494.011374688 71.5483161294634 0
11661.1956199085 71.5971004583279 0
11830.8116159721 71.5637732838417 0
12002.8947335091 71.4059014067315 0
12177.4808576279 71.379475763309 0
12354.6063953973 71.5961606898786 0
12534.3082834397 71.7307081268285 0
12716.6239956325 71.5629046866228 0
12901.5915509235 71.2928958709022 0
13089.2495212588 71.2409770005582 0
13279.6370396263 71.3377810423017 0
13472.7938082165 71.2606405155595 0
13668.7601067011 71.0404794444172 0
13867.5768006338 71.0865326249638 0
14069.2853499708 71.4028939439235 0
14273.9278177177 71.5592870089307 0
14481.5468787005 71.5026997788374 0
14692.1858284646 71.5330344427207 0
14905.888592304 71.6917626428176 0
15122.6997344205 71.7257141401784 0
15342.6644672172 71.6378929079183 0
15565.8286607269 71.7194997225641 0
15792.2388521773 71.8315745263407 0
16021.9422556956 71.6516487674202 0
16254.9867721544 71.4074308352563 0
16491.4209991604 71.3307054598889 0
16731.2942411889 71.2354388406151 0
