"Early Reflections"
"Floor Bounce"		"Ceiling Bounce"		"Front Wall Bounce"		"Side Wall Bounce"		"Rear Wall Bounce"		"Total Early Reflection"
"Frequency / Hz"	"Sound Pessure Level / dB  / [2.83V 1m] "	"Frequency / Hz"	"Sound Pessure Level / dB  / [2.83V 1m] "	"Frequency / Hz"	"Sound Pessure Level / dB  / [2.83V 1m] "	"Frequency / Hz"	"Sound Pessure Level / dB  / [2.83V 1m] "	"Frequency / Hz"	"Sound Pessure Level / dB  / [2.83V 1m] "	"Frequency / Hz"	"Sound Pessure Level / dB  / [2.83V 1m] "
20.5078	99.8235	20.5078	100.185	20.5078	99.7107	20.5078	100.421	20.5078	102.372	20.5078	100.438
21.9727	102.286	21.9727	102.69	21.9727	102.197	21.9727	102.902	21.9727	104.751	21.9727	102.903
23.4375	103.599	23.4375	104.027	23.4375	103.506	23.4375	104.261	23.4375	106.149	23.4375	104.25
24.9023	104.783	24.9023	105.18	24.9023	104.683	24.9023	105.421	24.9023	107.251	24.9023	105.405
26.3672	105.379	26.3672	105.829	26.3672	105.301	26.3672	106.028	26.3672	107.853	26.3672	106.017
27.832	105.875	27.832	106.301	27.832	105.789	27.832	106.51	27.832	108.361	27.832	106.506
29.2969	106.159	29.2969	106.611	29.2969	106.081	29.2969	106.813	29.2969	108.691	29.2969	106.81
30.7617	106.288	30.7617	106.775	30.7617	106.221	30.7617	106.967	30.7617	108.884	30.7617	106.966
32.2266	106.394	32.2266	106.883	32.2266	106.327	32.2266	107.068	32.2266	108.993	32.2266	107.071
33.6914	106.386	33.6914	106.821	33.6914	106.298	33.6914	107.044	33.6914	109.003	33.6914	107.049
35.1563	106.407	35.1563	106.785	35.1563	106.296	35.1563	107.043	35.1563	109.017	35.1563	107.049
36.6211	106.355	36.6211	106.713	36.6211	106.239	36.6211	106.98	36.6211	108.964	36.6211	106.99
38.0859	106.249	38.0859	106.592	38.0859	106.129	38.0859	106.863	38.0859	108.86	38.0859	106.877
39.5508	106.195	39.5508	106.539	39.5508	106.084	39.5508	106.797	39.5508	108.773	39.5508	106.815
41.0156	106.01	41.0156	106.338	41.0156	105.893	41.0156	106.605	41.0156	108.623	41.0156	106.631
42.4805	105.838	42.4805	106.168	42.4805	105.719	42.4805	106.44	42.4805	108.485	42.4805	106.467
43.9453	105.796	43.9453	106.082	43.9453	105.669	43.9453	106.36	43.9453	108.389	43.9453	106.394
45.4102	105.739	45.4102	106.005	45.4102	105.611	45.4102	106.281	45.4102	108.287	45.4102	106.318
46.875	105.643	46.875	105.896	46.875	105.513	46.875	106.171	46.875	108.178	46.875	106.213
48.3398	105.651	48.3398	105.863	48.3398	105.521	48.3398	106.129	48.3398	108.072	48.3398	106.177
51.2695	105.529	51.2695	105.676	51.2695	105.402	51.2695	105.928	51.2695	107.833	51.2695	105.998
52.7344	105.379	52.7344	105.502	52.7344	105.241	52.7344	105.767	52.7344	107.695	52.7344	105.841
54.1992	105.417	54.1992	105.52	54.1992	105.278	54.1992	105.781	54.1992	107.68	54.1992	105.858
55.6641	105.486	55.6641	105.573	55.6641	105.356	55.6641	105.813	55.6641	107.643	55.6641	105.895
58.5938	105.486	58.5938	105.515	58.5938	105.363	58.5938	105.725	58.5938	107.463	58.5938	105.826
60.0586	105.504	60.0586	105.497	60.0586	105.379	60.0586	105.704	60.0586	107.409	60.0586	105.813
62.9883	105.683	62.9883	105.574	62.9883	105.549	62.9883	105.773	62.9883	107.351	62.9883	105.899
64.4531	105.642	64.4531	105.469	64.4531	105.506	64.4531	105.671	64.4531	107.195	64.4531	105.809
67.3828	105.689	67.3828	105.584	67.3828	105.595	67.3828	105.689	67.3828	107.169	67.3828	105.852
68.8477	105.72	68.8477	105.587	68.8477	105.621	68.8477	105.684	68.8477	107.119	68.8477	105.853
71.7773	105.778	71.7773	105.552	71.7773	105.673	71.7773	105.629	71.7773	106.859	71.7773	105.81
74.707	105.893	74.707	105.591	74.707	105.802	74.707	105.617	74.707	106.631	74.707	105.825
77.6367	106.036	77.6367	105.656	77.6367	105.948	77.6367	105.647	77.6367	106.485	77.6367	105.879
79.1016	106.08	79.1016	105.639	79.1016	105.986	79.1016	105.62	79.1016	106.37	79.1016	105.868
82.0313	106.056	82.0313	105.481	82.0313	105.958	82.0313	105.446	82.0313	106.014	82.0313	105.732
84.9609	105.991	84.9609	105.358	84.9609	105.905	84.9609	105.289	84.9609	105.753	84.9609	105.608
87.8906	106.007	87.8906	105.347	87.8906	105.922	87.8906	105.229	87.8906	105.545	87.8906	105.568
90.8203	106.226	90.8203	105.574	90.8203	106.166	90.8203	105.35	90.8203	105.344	90.8203	105.714
95.2148	106.301	95.2148	105.495	95.2148	106.233	95.2148	105.195	95.2148	104.733	95.2148	105.62
98.1445	106.336	98.1445	105.435	98.1445	106.272	98.1445	105.084	98.1445	104.324	98.1445	105.555
101.074	106.295	101.074	105.317	101.074	106.231	101.074	104.927	101.074	103.948	101.074	105.437
105.469	106.267	105.469	105.182	105.469	106.225	105.469	104.685	105.469	103.249	105.469	105.28
108.398	106.294	108.398	105.163	108.398	106.246	108.398	104.59	108.398	102.907	108.398	105.233
112.793	106.24	112.793	104.975	112.793	106.169	112.793	104.338	112.793	102.262	112.793	105.053
117.188	106.08	117.188	104.504	117.188	105.945	117.188	103.925	117.188	101.559	117.188	104.722
120.117	106.101	120.117	104.559	120.117	106.003	120.117	103.948	120.117	101.4	120.117	104.751
124.512	106.301	124.512	104.727	124.512	106.2	124.512	104.064	124.512	100.959	124.512	104.888
128.906	106.401	128.906	104.754	128.906	106.297	128.906	104.034	128.906	100.353	128.906	104.907
133.301	106.435	133.301	104.766	133.301	106.351	133.301	103.936	133.301	99.7128	133.301	104.879
139.16	106.375	139.16	104.523	139.16	106.246	139.16	103.63	139.16	98.9491	139.16	104.683
143.555	106.521	143.555	104.51	143.555	106.364	143.555	103.679	143.555	98.7791	143.555	104.762
147.949	106.569	147.949	104.624	147.949	106.441	147.949	103.731	147.949	98.3805	147.949	104.818
153.809	106.477	153.809	104.513	153.809	106.362	153.809	103.521	153.809	97.6502	153.809	104.678
159.668	106.275	159.668	104.396	159.668	106.168	159.668	103.302	159.668	97.2583	159.668	104.48
165.527	106.282	165.527	104.249	165.527	106.132	165.527	103.191	165.527	96.8758	165.527	104.409
171.387	106.418	171.387	104.573	171.387	106.297	171.387	103.344	171.387	96.8503	171.387	104.58
177.246	106.479	177.246	104.568	177.246	106.345	177.246	103.307	177.246	96.6032	177.246	104.594
183.105	106.432	183.105	104.585	183.105	106.271	183.105	103.21	183.105	96.4111	183.105	104.527
188.965	106.843	188.965	104.902	188.965	106.647	188.965	103.555	188.965	96.5555	188.965	104.89
196.289	106.626	196.289	104.915	196.289	106.458	196.289	103.326	196.289	96.2741	196.289	104.706
203.613	106.745	203.613	104.689	203.613	106.467	203.613	103.227	203.613	95.8862	203.613	104.671
210.938	106.911	210.938	104.936	210.938	106.687	210.938	103.385	210.938	95.8256	210.938	104.863
218.262	106.709	218.262	104.932	218.262	106.432	218.262	103.249	218.262	96.2599	218.262	104.692
225.586	106.693	225.586	104.43	225.586	106.174	225.586	102.783	225.586	95.4221	225.586	104.385
232.91	106.757	232.91	104.187	232.91	106.284	232.91	102.883	232.91	95.1353	232.91	104.438
241.699	106.403	241.699	103.96	241.699	105.956	241.699	102.52	241.699	94.8473	241.699	104.107
250.488	106.146	250.488	103.513	250.488	105.752	250.488	102.183	250.488	94.3629	250.488	103.827
259.277	106.484	259.277	104.255	259.277	106.223	259.277	102.97	259.277	95.4749	259.277	104.397
268.066	106.333	268.066	104.773	268.066	106.113	268.066	102.94	268.066	96.3435	268.066	104.392
276.855	106.298	276.855	103.343	276.855	105.584	276.855	102.046	276.855	94.5879	276.855	103.737
287.109	106.536	287.109	104.148	287.109	106.17	287.109	102.434	287.109	94.6496	287.109	104.218
297.363	106.091	297.363	104.659	297.363	106.123	297.363	102.558	297.363	94.4419	297.363	104.207
307.617	105.825	307.617	103.895	307.617	105.547	307.617	102.06	307.617	95.1876	307.617	103.703
319.336	104.898	319.336	103.826	319.336	104.75	319.336	100.899	319.336	93.0797	319.336	102.867
329.59	105.042	329.59	104.207	329.59	104.977	329.59	100.551	329.59	91.4131	329.59	102.949
341.309	105.112	341.309	104.076	341.309	105.184	341.309	101.141	341.309	90.5231	341.309	103.161
353.027	105.983	353.027	105.173	353.027	106.186	353.027	102.267	353.027	92.2614	353.027	104.189
366.211	106.389	366.211	105.061	366.211	106.539	366.211	103.373	366.211	95.1958	366.211	104.713
379.395	106.459	379.395	104.782	379.395	106.427	379.395	103.41	379.395	95.9584	379.395	104.667
392.578	106.383	392.578	105.149	392.578	106.778	392.578	103.825	392.578	96.9512	392.578	104.978
405.762	106.841	405.762	104.625	405.762	106.98	405.762	103.68	405.762	96.6187	405.762	105.032
420.41	105.896	420.41	104.681	420.41	106.302	420.41	103.068	420.41	95.3578	420.41	104.402
435.059	106.538	435.059	104.804	435.059	107.126	435.059	103.801	435.059	96.4441	435.059	105.094
451.172	105.35	451.172	104.337	451.172	106.008	451.172	102.853	451.172	95.6193	451.172	104.093
465.82	104.466	465.82	103.738	465.82	104.995	465.82	102.003	465.82	95.4993	465.82	103.216
483.398	105.258	483.398	103.872	483.398	106.001	483.398	102.185	483.398	94.4617	483.398	103.818
499.512	104.68	499.512	103.631	499.512	105.459	499.512	101.974	499.512	94.5074	499.512	103.404
517.09	104.855	517.09	103.224	517.09	106.191	517.09	102.771	517.09	95.2122	517.09	103.947
536.133	104.311	536.133	103.156	536.133	105.612	536.133	102.328	536.133	95.4103	536.133	103.478
555.176	103.088	555.176	102.874	555.176	104.554	555.176	101.342	555.176	94.3029	555.176	102.509
574.219	103.864	574.219	103.824	574.219	105.394	574.219	101.923	574.219	94.9283	574.219	103.276
594.727	102.764	594.727	103.884	594.727	104.948	594.727	101.898	594.727	95.5384	594.727	102.963
615.234	102.899	615.234	103.888	615.234	105.101	615.234	101.654	615.234	95.0659	615.234	102.964
637.207	102.929	637.207	103.277	637.207	105.388	637.207	102.263	637.207	94.5768	637.207	103.188
659.18	103.224	659.18	103.706	659.18	106.002	659.18	102.458	659.18	95.0137	659.18	103.617
682.617	102.528	682.617	103.467	682.617	105.312	682.617	102.187	682.617	95.9653	682.617	103.138
707.52	103.42	707.52	103.918	707.52	105.712	707.52	102.273	707.52	94.9456	707.52	103.476
732.422	102.789	732.422	103.331	732.422	105.697	732.422	102.161	732.422	95.1063	732.422	103.299
757.324	103.167	757.324	103.632	757.324	105.577	757.324	101.778	757.324	95.6295	757.324	103.221
785.156	102.484	785.156	102.753	785.156	105.739	785.156	102.102	785.156	94.9786	785.156	103.204
811.523	102.609	811.523	102.502	811.523	105.501	811.523	101.435	811.523	94.3314	811.523	102.873
840.82	101.642	840.82	101.848	840.82	105.173	840.82	101.442	840.82	94.1889	840.82	102.546
870.117	102.424	870.117	101.472	870.117	105.836	870.117	101.605	870.117	94.4782	870.117	102.977
900.879	101.74	900.879	100.585	900.879	105.217	900.879	101.572	900.879	92.8021	900.879	102.488
933.105	102.249	933.105	100.216	933.105	105.65	933.105	101.77	933.105	94.5485	933.105	102.821
965.332	101.993	965.332	100.803	965.332	105.482	965.332	101.717	965.332	94.7911	965.332	102.738
1,000.49	101.946	1,000.49	100.022	1,000.49	105.742	1,000.49	101.937	1,000.49	94.0046	1,000.49	102.87
1,035.64	100.414	1,035.64	98.814	1,035.64	105.227	1,035.64	101.641	1,035.64	93.6351	1,035.64	102.303
1,072.27	99.4738	1,072.27	96.7436	1,072.27	105.523	1,072.27	101.579	1,072.27	93.1738	1,072.27	102.29
1,108.89	98.6518	1,108.89	94.0163	1,108.89	105.427	1,108.89	101.949	1,108.89	93.7372	1,108.89	102.26
1,148.44	98.6027	1,148.44	93.3931	1,148.44	105.721	1,148.44	102.074	1,148.44	92.9263	1,148.44	102.447
1,189.45	97.699	1,189.45	91.7952	1,189.45	105.56	1,189.45	101.724	1,189.45	93.3196	1,189.45	102.177
1,230.47	97.2537	1,230.47	89.5439	1,230.47	105.665	1,230.47	101.594	1,230.47	92.8643	1,230.47	102.152
1,274.41	96.4544	1,274.41	88.0157	1,274.41	105.465	1,274.41	101.229	1,274.41	92.5065	1,274.41	101.866
1,319.82	95.7994	1,319.82	90.8311	1,319.82	105.031	1,319.82	100.81	1,319.82	92.1438	1,319.82	101.454
1,366.7	95.0612	1,366.7	92.6597	1,366.7	105.165	1,366.7	100.279	1,366.7	92.5807	1,366.7	101.379
1,413.57	95.6955	1,413.57	94.483	1,413.57	105.042	1,413.57	99.8086	1,413.57	91.0366	1,413.57	101.198
1,463.38	96.56	1,463.38	94.6659	1,463.38	104.983	1,463.38	99.5817	1,463.38	91.9654	1,463.38	101.145
1,516.11	97.2893	1,516.11	95.259	1,516.11	105.133	1,516.11	99.6569	1,516.11	93.3354	1,516.11	101.331
1,568.85	97.8666	1,568.85	96.3064	1,568.85	105.133	1,568.85	99.7409	1,568.85	92.0104	1,568.85	101.394
1,624.51	98.1076	1,624.51	97.6506	1,624.51	104.698	1,624.51	99.6829	1,624.51	92.6968	1,624.51	101.189
1,681.64	98.2197	1,681.64	99.4395	1,681.64	104.515	1,681.64	100.004	1,681.64	94.4664	1,681.64	101.325
1,741.7	98.5544	1,741.7	99.208	1,741.7	105.086	1,741.7	100.738	1,741.7	92.6136	1,741.7	101.83
1,803.22	99.1698	1,803.22	100.213	1,803.22	105.309	1,803.22	100.8	1,803.22	92.7231	1,803.22	102.081
1,866.21	100.386	1,866.21	100.747	1,866.21	104.657	1,866.21	100.451	1,866.21	94.4447	1,866.21	101.786
1,932.13	99.9538	1,932.13	100.948	1,932.13	104.084	1,932.13	100.104	1,932.13	94.2271	1,932.13	101.372
1,999.51	100.465	1,999.51	101.221	1,999.51	104.394	1,999.51	99.9531	1,999.51	93.1415	1,999.51	101.541
2,069.82	100.344	2,069.82	100.648	2,069.82	104.89	2,069.82	100.285	2,069.82	91.8097	2,069.82	101.81
2,143.07	100.654	2,143.07	100.711	2,143.07	104.203	2,143.07	99.7614	2,143.07	91.3997	2,143.07	101.331
2,219.24	100.913	2,219.24	100.922	2,219.24	103.888	2,219.24	99.2778	2,219.24	91.4758	2,219.24	101.092
2,296.88	100.869	2,296.88	100.816	2,296.88	104.043	2,296.88	99.1972	2,296.88	90.4973	2,296.88	101.125
2,378.91	101.13	2,378.91	100.703	2,378.91	104.309	2,378.91	99.5291	2,378.91	90.6837	2,378.91	101.367
2,462.4	101.639	2,462.4	100.651	2,462.4	103.954	2,462.4	99.4926	2,462.4	91.1704	2,462.4	101.235
2,548.83	101.763	2,548.83	100.322	2,548.83	104.043	2,548.83	99.372	2,548.83	90.2119	2,548.83	101.223
2,639.65	101.931	2,639.65	100.517	2,639.65	104.153	2,639.65	99.3289	2,639.65	90.7214	2,639.65	101.315
2,731.93	102.271	2,731.93	100.107	2,731.93	104.5	2,731.93	99.5257	2,731.93	90.6042	2,731.93	101.553
2,828.61	102.247	2,828.61	100.382	2,828.61	104.279	2,828.61	99.1464	2,828.61	90.3692	2,828.61	101.365
2,928.22	102.176	2,928.22	100.096	2,928.22	104.114	2,928.22	98.611	2,928.22	89.7249	2,928.22	101.115
3,030.76	102.136	3,030.76	100.512	3,030.76	104.78	3,030.76	98.877	3,030.76	89.3635	3,030.76	101.568
3,137.7	102.233	3,137.7	100.172	3,137.7	104.071	3,137.7	98.4934	3,137.7	89.9731	3,137.7	101.085
3,249.02	101.953	3,249.02	100.473	3,249.02	104.457	3,249.02	98.1841	3,249.02	89.2735	3,249.02	101.218
3,363.28	102.284	3,363.28	100.516	3,363.28	104.339	3,363.28	98.5289	3,363.28	89.0912	3,363.28	101.27
3,481.93	102.471	3,481.93	100.267	3,481.93	104.385	3,481.93	98.4157	3,481.93	90.1363	3,481.93	101.286
3,604.98	102.599	3,604.98	100.815	3,604.98	104.334	3,604.98	98.3269	3,604.98	88.8293	3,604.98	101.303
3,732.42	102.353	3,732.42	100.272	3,732.42	104.754	3,732.42	98.7692	3,732.42	90.3374	3,732.42	101.547
3,864.26	102.293	3,864.26	100.56	3,864.26	104.62	3,864.26	98.4731	3,864.26	88.8207	3,864.26	101.419
4,000.49	102.501	4,000.49	100.25	4,000.49	104.598	4,000.49	98.6146	4,000.49	89.6524	4,000.49	101.442
4,141.11	101.984	4,141.11	100.342	4,141.11	104.579	4,141.11	98.2716	4,141.11	88.2165	4,141.11	101.29
4,287.6	101.617	4,287.6	100.066	4,287.6	104.077	4,287.6	97.7356	4,287.6	88.3724	4,287.6	100.825
4,438.48	101.844	4,438.48	100.343	4,438.48	104.683	4,438.48	98.2019	4,438.48	87.7783	4,438.48	101.316
4,595.21	102.325	4,595.21	100.489	4,595.21	104.606	4,595.21	98.1959	4,595.21	88.5394	4,595.21	101.354
4,756.35	102.188	4,756.35	100.642	4,756.35	105.15	4,756.35	98.4455	4,756.35	87.6778	4,756.35	101.707
4,924.8	102.563	4,924.8	100.789	4,924.8	104.865	4,924.8	98.2207	4,924.8	88.3547	4,924.8	101.569
5,097.66	102.21	5,097.66	100.833	5,097.66	104.946	5,097.66	98.6658	5,097.66	87.4952	5,097.66	101.649
5,277.83	102.007	5,277.83	100.834	5,277.83	104.96	5,277.83	98.1627	5,277.83	88.3291	5,277.83	101.542
5,463.87	102.101	5,463.87	101.205	5,463.87	104.962	5,463.87	99.0178	5,463.87	87.9148	5,463.87	101.753
5,657.23	102.158	5,657.23	101.371	5,657.23	104.942	5,657.23	98.6287	5,657.23	87.0527	5,657.23	101.686
5,856.45	102.594	5,856.45	101.512	5,856.45	105.224	5,856.45	98.7808	5,856.45	87.6911	5,856.45	101.95
6,062.99	102.885	6,062.99	101.74	6,062.99	105.418	6,062.99	99.2921	6,062.99	87.5253	6,062.99	102.22
6,276.86	103.018	6,276.86	101.832	6,276.86	105.078	6,276.86	99.2073	6,276.86	87.4506	6,276.86	102.043
6,498.05	103.141	6,498.05	101.642	6,498.05	105.407	6,498.05	99.3219	6,498.05	87.5438	6,498.05	102.245
6,726.56	103.032	6,726.56	101.666	6,726.56	105.515	6,726.56	99.2359	6,726.56	87.0382	6,726.56	102.275
6,963.87	103.015	6,963.87	101.566	6,963.87	105.285	6,963.87	99.1319	6,963.87	87.3622	6,963.87	102.114
7,209.96	102.865	7,209.96	101.348	7,209.96	105.293	7,209.96	99.1762	7,209.96	87.297	7,209.96	102.084
7,464.84	102.744	7,464.84	101.133	7,464.84	105.423	7,464.84	99.1571	7,464.84	86.6893	7,464.84	102.115
7,727.05	102.674	7,727.05	101.066	7,727.05	105.431	7,727.05	98.8127	7,727.05	86.1974	7,727.05	102.038
7,999.51	102.68	7,999.51	100.719	7,999.51	105.349	7,999.51	98.4664	7,999.51	86.2193	7,999.51	101.897
8,282.23	102.569	8,282.23	100.564	8,282.23	105.325	8,282.23	98.1409	8,282.23	85.4529	8,282.23	101.796
8,573.73	102.545	8,573.73	100.3	8,573.73	105.359	8,573.73	97.9111	8,573.73	85.3945	8,573.73	101.753
8,876.95	102.384	8,876.95	99.9764	8,876.95	105.432	8,876.95	97.8095	8,876.95	85.264	8,876.95	101.735
9,188.96	102.266	9,188.96	99.7579	9,188.96	105.49	9,188.96	97.6702	9,188.96	84.4395	9,188.96	101.717
9,514.16	102.216	9,514.16	99.5654	9,514.16	105.51	9,514.16	97.5493	9,514.16	84.3772	9,514.16	101.691
9,849.61	102.226	9,849.61	99.6053	9,849.61	105.473	9,849.61	97.5957	9,849.61	84.9562	9,849.61	101.679
10,196.8	102.146	10,196.8	99.5493	10,196.8	105.354	10,196.8	97.5865	10,196.8	84.3672	10,196.8	101.585
10,555.7	102.126	10,555.7	99.7686	10,555.7	105.168	10,555.7	97.56	10,555.7	84.6425	10,555.7	101.478
10,927.7	102.377	10,927.7	100.198	10,927.7	105.155	10,927.7	97.9152	10,927.7	85.3085	10,927.7	101.597
11,313	102.413	11,313	100.516	11,313	105.122	11,313	98.4929	11,313	85.5197	11,313	101.71
11,712.9	102.255	11,712.9	100.547	11,712.9	104.806	11,712.9	98.8897	11,712.9	85.6985	11,712.9	101.587
12,126	102.332	12,126	100.664	12,126	104.706	12,126	99.5519	12,126	85.9095	12,126	101.7
12,553.7	102.738	12,553.7	100.762	12,553.7	104.903	12,553.7	100.054	12,553.7	86.2675	12,553.7	101.99
12,996.1	102.951	12,996.1	100.727	12,996.1	105.104	12,996.1	99.9716	12,996.1	85.5877	12,996.1	102.101
13,454.6	102.662	13,454.6	100.439	13,454.6	105.093	13,454.6	99.6727	13,454.6	85.0073	13,454.6	101.961
13,929.2	102.295	13,929.2	100.209	13,929.2	104.962	13,929.2	99.1937	13,929.2	84.1092	13,929.2	101.712
14,419.9	102.166	14,419.9	100.021	14,419.9	104.865	14,419.9	98.7181	14,419.9	83.5479	14,419.9	101.524
14,928.2	102.345	14,928.2	100.068	14,928.2	105.25	14,928.2	98.7491	14,928.2	82.7191	14,928.2	101.783
15,455.6	102.263	15,455.6	99.9451	15,455.6	105.5	15,455.6	98.6619	15,455.6	82.118	15,455.6	101.898
16,000.5	101.969	16,000.5	99.6282	16,000.5	105.403	16,000.5	98.2521	16,000.5	81.0048	16,000.5	101.704
16,564.5	101.76	16,564.5	99.1339	16,564.5	105.173	16,564.5	97.8344	16,564.5	80.3339	16,564.5	101.425
17,148.9	101.659	17,148.9	98.6628	17,148.9	104.941	17,148.9	97.3231	17,148.9	79.1815	17,148.9	101.147
17,752.4	101.038	17,752.4	97.8895	17,752.4	104.399	17,752.4	96.5123	17,752.4	77.9303	17,752.4	100.538
18,379.4	100.002	18,379.4	96.6645	18,379.4	103.436	18,379.4	95.477	18,379.4	76.7538	18,379.4	99.5384
19,026.9	99.0579	19,026.9	95.2065	19,026.9	102.424	19,026.9	94.7126	19,026.9	76.473	19,026.9	98.5487
19,697.8	98.3532	19,697.8	94.4678	19,697.8	101.967	19,697.8	94.6702	19,697.8	77.1584	19,697.8	98.1164
19,999.5	98.3988	19,999.5	94.2733	19,999.5	101.826	19,999.5	94.9026	19,999.5	77.6535	19,999.5	98.0632
