Freq[Hz]     dBSPL  Phase[Deg]
2.0507813e+01 3.8789494e+01 -4.0827391e+01
2.1972656e+01 4.7396626e+01 -1.2708295e+01
2.3437500e+01 5.1694005e+01 -3.9814423e+01
2.4902344e+01 5.3222438e+01 -5.9795326e+01
2.6367188e+01 5.4333159e+01 -6.1598700e+01
2.7832031e+01 5.6782042e+01 -6.7869976e+01
2.9296875e+01 5.8877331e+01 -7.7358140e+01
3.0761719e+01 6.0482215e+01 -8.5689138e+01
3.2226563e+01 6.2117165e+01 -9.4419460e+01
3.3691406e+01 6.3477524e+01 -1.0216595e+02
3.5156250e+01 6.5011780e+01 -1.0994005e+02
3.6621094e+01 6.6174077e+01 -1.1972868e+02
3.8085938e+01 6.7029600e+01 -1.2808287e+02
3.9550781e+01 6.7744094e+01 -1.3562868e+02
4.1015625e+01 6.8429228e+01 -1.4217015e+02
4.2480469e+01 6.9119894e+01 -1.4803824e+02
4.3945313e+01 6.9752064e+01 -1.5383615e+02
4.5410156e+01 7.0322200e+01 -1.5932259e+02
4.6875000e+01 7.0815402e+01 -1.6465605e+02
4.8339844e+01 7.1248128e+01 -1.6938444e+02
5.1269531e+01 7.2089750e+01 -1.7773043e+02
5.2734375e+01 7.2513617e+01 1.7835169e+02
5.4199219e+01 7.2915440e+01 1.7454117e+02
5.5664063e+01 7.3207861e+01 1.7099668e+02
5.8593750e+01 7.3845805e+01 1.6443123e+02
6.0058594e+01 7.4176209e+01 1.6138159e+02
6.2988281e+01 7.4834895e+01 1.5591454e+02
6.4453125e+01 7.5132268e+01 1.5309768e+02
6.7382813e+01 7.5630601e+01 1.4759523e+02
6.8847656e+01 7.5845820e+01 1.4469307e+02
7.1777344e+01 7.6386957e+01 1.3933626e+02
7.4707031e+01 7.6892465e+01 1.3487248e+02
7.7636719e+01 7.7228024e+01 1.3042105e+02
7.9101563e+01 7.7421945e+01 1.2762557e+02
8.2031250e+01 7.7912962e+01 1.2257196e+02
8.4960938e+01 7.8328353e+01 1.1853609e+02
8.7890625e+01 7.8567906e+01 1.1389104e+02
9.0820313e+01 7.8887375e+01 1.0880999e+02
9.5214844e+01 7.9318827e+01 1.0285532e+02
9.8144531e+01 7.9503808e+01 9.8416948e+01
1.0107422e+02 7.9722485e+01 9.3960769e+01
1.0546875e+02 7.9991249e+01 8.8008836e+01
1.0839844e+02 8.0106709e+01 8.4061565e+01
1.1279297e+02 8.0316265e+01 7.7845550e+01
1.1718750e+02 8.0447559e+01 7.2598608e+01
1.2011719e+02 8.0495750e+01 6.8918257e+01
1.2451172e+02 8.0561892e+01 6.4186644e+01
1.2890625e+02 8.0575711e+01 5.9647737e+01
1.3330078e+02 8.0618470e+01 5.5577570e+01
1.3916016e+02 8.0637863e+01 4.9827764e+01
1.4355469e+02 8.0549928e+01 4.5905732e+01
1.4794922e+02 8.0453772e+01 4.2569005e+01
1.5380859e+02 8.0353313e+01 3.8687999e+01
1.5966797e+02 8.0288640e+01 3.4910412e+01
1.6552734e+02 8.0190089e+01 3.1474545e+01
1.7138672e+02 8.0181786e+01 2.8119460e+01
1.7724609e+02 8.0027251e+01 2.4207935e+01
1.8310547e+02 7.9796642e+01 2.1403577e+01
1.8896484e+02 7.9642813e+01 1.9742454e+01
1.9628906e+02 7.9690859e+01 1.6516824e+01
2.0361328e+02 7.9491159e+01 1.2704335e+01
2.1093750e+02 7.9212731e+01 9.9259360e+00
2.1826172e+02 7.8943351e+01 8.0909471e+00
2.2558594e+02 7.8727294e+01 7.2637602e+00
2.3291016e+02 7.8903537e+01 5.7842266e+00
2.4169922e+02 7.8632160e+01 2.1114913e+00
2.5048828e+02 7.8441774e+01 7.8115304e-01
2.5927734e+02 7.8373583e+01 -3.5596658e-01
2.6806641e+02 7.8378623e+01 -2.8290686e+00
2.7685547e+02 7.8113251e+01 -4.9782527e+00
2.8710938e+02 7.7941881e+01 -5.2454363e+00
2.9736328e+02 7.8067091e+01 -7.0501649e+00
3.0761719e+02 7.7855669e+01 -8.7221575e+00
3.1933594e+02 7.8035813e+01 -1.0568954e+01
3.2958984e+02 7.7806051e+01 -1.2703792e+01
3.4130859e+02 7.7895544e+01 -1.4910907e+01
3.5302734e+02 7.7498762e+01 -1.6700751e+01
3.6621094e+02 7.7422348e+01 -1.6730111e+01
3.7939453e+02 7.7521593e+01 -1.8075570e+01
3.9257813e+02 7.7401518e+01 -1.8526341e+01
4.0576172e+02 7.7587204e+01 -2.0689792e+01
4.2041016e+02 7.7139216e+01 -2.2547469e+01
4.3505859e+02 7.7231068e+01 -2.1439606e+01
4.5117188e+02 7.7110283e+01 -2.2720484e+01
4.6582031e+02 7.7271614e+01 -2.0800830e+01
4.8339844e+02 7.7772625e+01 -2.3468097e+01
4.9951172e+02 7.8187754e+01 -2.3250590e+01
5.1708984e+02 7.8878616e+01 -3.0220992e+01
5.3613281e+02 7.8542551e+01 -3.5252051e+01
5.5517578e+02 7.8538684e+01 -3.8287909e+01
5.7421875e+02 7.8600644e+01 -4.0169989e+01
5.9472656e+02 7.8771572e+01 -4.5498828e+01
6.1523438e+02 7.8591507e+01 -4.8651935e+01
6.3720703e+02 7.8631075e+01 -5.2779603e+01
6.5917969e+02 7.8369699e+01 -5.9123412e+01
6.8261719e+02 7.7722818e+01 -6.0511672e+01
7.0751953e+02 7.7867098e+01 -6.4043218e+01
7.3242188e+02 7.7655002e+01 -6.6703210e+01
7.5732422e+02 7.7618563e+01 -7.1978971e+01
7.8515625e+02 7.7442177e+01 -7.3252914e+01
8.1152344e+02 7.6869517e+01 -7.7408553e+01
8.4082031e+02 7.6973564e+01 -7.7878896e+01
8.7011719e+02 7.5731092e+01 -8.0459829e+01
9.0087891e+02 7.5038971e+01 -7.8745884e+01
9.3310547e+02 7.5640440e+01 -7.4871176e+01
9.6533203e+02 7.5350547e+01 -7.8309670e+01
1.0004883e+03 7.5745982e+01 -8.4380619e+01
1.0356445e+03 7.5168716e+01 -9.0696931e+01
1.0722656e+03 7.4445726e+01 -9.0820851e+01
1.1088867e+03 7.4379110e+01 -9.0204062e+01
1.1484375e+03 7.4340312e+01 -8.7122226e+01
1.1894531e+03 7.5472231e+01 -9.1061677e+01
1.2304688e+03 7.5583600e+01 -9.5725569e+01
1.2744141e+03 7.5365583e+01 -1.0429207e+02
1.3198242e+03 7.5198443e+01 -1.0622948e+02
1.3666992e+03 7.5026669e+01 -1.0982531e+02
1.4135742e+03 7.4853040e+01 -1.1194443e+02
1.4633789e+03 7.5175371e+01 -1.1480657e+02
1.5161133e+03 7.5390754e+01 -1.1911154e+02
1.5688477e+03 7.5221337e+01 -1.2787839e+02
1.6245117e+03 7.5320982e+01 -1.3226959e+02
1.6816406e+03 7.5163494e+01 -1.3288120e+02
1.7416992e+03 7.5551181e+01 -1.4537069e+02
1.8032227e+03 7.5386927e+01 -1.5170325e+02
1.8662109e+03 7.4418376e+01 -1.5805905e+02
1.9321289e+03 7.3579157e+01 -1.6031229e+02
1.9995117e+03 7.4013705e+01 -1.5875563e+02
2.0698242e+03 7.4382338e+01 -1.6501891e+02
2.1430664e+03 7.3957969e+01 -1.7400235e+02
2.2192383e+03 7.3289247e+01 -1.7567818e+02
2.2968750e+03 7.3807919e+01 -1.7446786e+02
2.3789063e+03 7.4703267e+01 1.7898428e+02
2.4624023e+03 7.4656896e+01 1.7137205e+02
2.5488281e+03 7.4781656e+01 1.6720666e+02
2.6396484e+03 7.4890294e+01 1.6016515e+02
2.7319336e+03 7.5044560e+01 1.5412998e+02
2.8286133e+03 7.5604442e+01 1.5119646e+02
2.9282227e+03 7.5980285e+01 1.4159269e+02
3.0307617e+03 7.5469612e+01 1.3331056e+02
3.1376953e+03 7.6215122e+01 1.2940288e+02
3.2490234e+03 7.6516855e+01 1.1529605e+02
3.3632813e+03 7.5897234e+01 1.0850816e+02
3.4819336e+03 7.6405177e+01 1.0454835e+02
3.6049805e+03 7.6897761e+01 9.3877941e+01
3.7324219e+03 7.6939235e+01 8.4284448e+01
3.8642578e+03 7.6450477e+01 7.2675649e+01
4.0004883e+03 7.6545736e+01 7.1524405e+01
4.1411133e+03 7.6423563e+01 5.5923197e+01
4.2875977e+03 7.5708549e+01 5.7549333e+01
4.4384766e+03 7.5941331e+01 4.4546400e+01
4.5952148e+03 7.5531103e+01 4.4119460e+01
4.7563477e+03 7.5043564e+01 3.6210117e+01
4.9248047e+03 7.5723188e+01 3.1964123e+01
5.0976563e+03 7.4940366e+01 3.1183980e+01
5.2778320e+03 7.5779633e+01 2.1176654e+01
5.4638672e+03 7.5965635e+01 2.0031839e+01
5.6572266e+03 7.5819355e+01 1.2730667e+01
5.8564453e+03 7.6383742e+01 3.5066056e+00
6.0629883e+03 7.7174965e+01 2.4878149e-01
6.2768555e+03 7.6820393e+01 -1.0041874e+01
6.4980469e+03 7.7421878e+01 -2.0900185e+01
6.7265625e+03 7.6935896e+01 -3.1419154e+01
6.9638672e+03 7.6368971e+01 -4.1521066e+01
7.2099609e+03 7.5747436e+01 -4.2742461e+01
7.4648438e+03 7.5214660e+01 -4.9720916e+01
7.7270508e+03 7.5887689e+01 -5.6578525e+01
7.9995117e+03 7.6258083e+01 -5.8793540e+01
8.2822266e+03 7.7016922e+01 -6.5618519e+01
8.5737305e+03 7.7816139e+01 -7.6972541e+01
8.8769531e+03 7.7677955e+01 -8.7412270e+01
9.1889648e+03 7.7161037e+01 -9.5535834e+01
9.5141602e+03 7.6596508e+01 -1.0229388e+02
9.8496094e+03 7.6395719e+01 -1.0905167e+02
1.0196777e+04 7.6383475e+01 -1.1712170e+02
1.0555664e+04 7.6288201e+01 -1.2449752e+02
1.0927734e+04 7.6247704e+01 -1.3087156e+02
1.1312988e+04 7.6199675e+01 -1.3830079e+02
1.1712891e+04 7.6150522e+01 -1.4594612e+02
1.2125977e+04 7.6095392e+01 -1.5430737e+02
1.2553711e+04 7.5805385e+01 -1.6335077e+02
1.2996094e+04 7.5458146e+01 -1.7102593e+02
1.3454590e+04 7.5188972e+01 -1.7932126e+02
1.3929199e+04 7.5039752e+01 1.7173817e+02
1.4419922e+04 7.4963041e+01 1.6199594e+02
1.4928223e+04 7.4834056e+01 1.5122195e+02
1.5455566e+04 7.4808225e+01 1.4041599e+02
1.6000488e+04 7.4821398e+01 1.2880173e+02
1.6564453e+04 7.4983769e+01 1.1875751e+02
1.7148926e+04 7.5482693e+01 1.0847343e+02
1.7752441e+04 7.5955104e+01 9.7187229e+01
1.8379395e+04 7.6608861e+01 8.4083119e+01
1.9026855e+04 7.6905520e+01 6.9943681e+01
1.9697754e+04 7.7134055e+01 5.2882222e+01
1.9999512e+04 7.6969178e+01 4.4756681e+01
