Freq[Hz]     dBSPL  Phase[Deg]
2.0507813e+01 4.1423781e+01 -5.1222984e+01
2.1972656e+01 4.8316666e+01 -1.0289274e+01
2.3437500e+01 5.3069779e+01 -3.5769708e+01
2.4902344e+01 5.4689083e+01 -5.3599003e+01
2.6367188e+01 5.5948824e+01 -5.7356405e+01
2.7832031e+01 5.8211924e+01 -6.3148543e+01
2.9296875e+01 6.0272116e+01 -7.2184116e+01
3.0761719e+01 6.1881426e+01 -7.9702347e+01
3.2226563e+01 6.3445909e+01 -8.8077203e+01
3.3691406e+01 6.4906758e+01 -9.5660317e+01
3.5156250e+01 6.6385725e+01 -1.0406246e+02
3.6621094e+01 6.7493090e+01 -1.1379782e+02
3.8085938e+01 6.8293877e+01 -1.2222795e+02
3.9550781e+01 6.8990966e+01 -1.2965305e+02
4.1015625e+01 6.9636235e+01 -1.3626098e+02
4.2480469e+01 7.0291107e+01 -1.4199323e+02
4.3945313e+01 7.0903297e+01 -1.4767716e+02
4.5410156e+01 7.1458475e+01 -1.5309464e+02
4.6875000e+01 7.1930147e+01 -1.5834542e+02
4.8339844e+01 7.2346537e+01 -1.6297263e+02
5.1269531e+01 7.3169343e+01 -1.7108660e+02
5.2734375e+01 7.3583388e+01 -1.7491742e+02
5.4199219e+01 7.3976290e+01 -1.7860726e+02
5.5664063e+01 7.4292159e+01 1.7811886e+02
5.8593750e+01 7.4914173e+01 1.7181473e+02
6.0058594e+01 7.5262063e+01 1.6894112e+02
6.2988281e+01 7.5909256e+01 1.6335980e+02
6.4453125e+01 7.6191671e+01 1.6067717e+02
6.7382813e+01 7.6670363e+01 1.5542690e+02
6.8847656e+01 7.6881252e+01 1.5266063e+02
7.1777344e+01 7.7411210e+01 1.4752811e+02
7.4707031e+01 7.7914207e+01 1.4330149e+02
7.7636719e+01 7.8237787e+01 1.3912410e+02
7.9101563e+01 7.8434462e+01 1.3646869e+02
8.2031250e+01 7.8929199e+01 1.3165570e+02
8.4960938e+01 7.9346951e+01 1.2787240e+02
8.7890625e+01 7.9584655e+01 1.2344266e+02
9.0820313e+01 7.9914078e+01 1.1866869e+02
9.5214844e+01 8.0351052e+01 1.1297611e+02
9.8144531e+01 8.0521366e+01 1.0875355e+02
1.0107422e+02 8.0735867e+01 1.0460421e+02
1.0546875e+02 8.1009748e+01 9.9093156e+01
1.0839844e+02 8.1125824e+01 9.5483355e+01
1.1279297e+02 8.1389448e+01 8.9668744e+01
1.1718750e+02 8.1499272e+01 8.4712572e+01
1.2011719e+02 8.1593796e+01 8.1337867e+01
1.2451172e+02 8.1643778e+01 7.6780465e+01
1.2890625e+02 8.1689858e+01 7.2688116e+01
1.3330078e+02 8.1742223e+01 6.8817410e+01
1.3916016e+02 8.1752225e+01 6.3501972e+01
1.4355469e+02 8.1666984e+01 6.0063987e+01
1.4794922e+02 8.1590944e+01 5.7163369e+01
1.5380859e+02 8.1520094e+01 5.3823207e+01
1.5966797e+02 8.1493805e+01 5.0510635e+01
1.6552734e+02 8.1423860e+01 4.7406914e+01
1.7138672e+02 8.1401802e+01 4.4432108e+01
1.7724609e+02 8.1256756e+01 4.1259178e+01
1.8310547e+02 8.1074248e+01 3.9121204e+01
1.8896484e+02 8.0991188e+01 3.7768685e+01
1.9628906e+02 8.1024393e+01 3.4942636e+01
2.0361328e+02 8.0832416e+01 3.1935146e+01
2.1093750e+02 8.0601955e+01 3.0114499e+01
2.1826172e+02 8.0437775e+01 2.9005904e+01
2.2558594e+02 8.0348270e+01 2.8607181e+01
2.3291016e+02 8.0529282e+01 2.6826312e+01
2.4169922e+02 8.0278096e+01 2.4425169e+01
2.5048828e+02 8.0216820e+01 2.3517042e+01
2.5927734e+02 8.0198976e+01 2.2346656e+01
2.6806641e+02 8.0190117e+01 2.0413063e+01
2.7685547e+02 7.9979723e+01 1.9333203e+01
2.8710938e+02 7.9989594e+01 1.9248172e+01
2.9736328e+02 8.0139370e+01 1.7493393e+01
3.0761719e+02 7.9952224e+01 1.6205516e+01
3.1933594e+02 8.0067564e+01 1.4469257e+01
3.2958984e+02 7.9969526e+01 1.3791146e+01
3.4130859e+02 8.0022429e+01 1.1512087e+01
3.5302734e+02 7.9768354e+01 1.0764995e+01
3.6621094e+02 7.9737327e+01 1.0601174e+01
3.7939453e+02 7.9767674e+01 9.9539059e+00
3.9257813e+02 7.9825441e+01 1.0503073e+01
4.0576172e+02 8.0017494e+01 7.6890931e+00
4.2041016e+02 7.9494826e+01 6.3678243e+00
4.3505859e+02 7.9535727e+01 8.1352158e+00
4.5117188e+02 7.9324840e+01 8.3460516e+00
4.6582031e+02 7.9737651e+01 1.1259202e+01
4.8339844e+02 7.9841953e+01 8.7530316e+00
4.9951172e+02 8.0582171e+01 1.0852914e+01
5.1708984e+02 8.1071313e+01 5.3832557e+00
5.3613281e+02 8.1095868e+01 1.9401153e+00
5.5517578e+02 8.1110083e+01 -8.0217525e-01
5.7421875e+02 8.1296324e+01 -3.6011416e+00
5.9472656e+02 8.1222258e+01 -7.5687358e+00
6.1523438e+02 8.0934170e+01 -1.0355001e+01
6.3720703e+02 8.0924400e+01 -1.1998441e+01
6.5917969e+02 8.0522428e+01 -1.5334963e+01
6.8261719e+02 8.0364750e+01 -1.6033405e+01
7.0751953e+02 8.0219298e+01 -2.0668169e+01
7.3242188e+02 8.0046132e+01 -2.0466260e+01
7.5732422e+02 7.9407813e+01 -2.3970540e+01
7.8515625e+02 7.9385936e+01 -2.0939651e+01
8.1152344e+02 7.8996956e+01 -2.0952105e+01
8.4082031e+02 7.9217319e+01 -2.0089125e+01
8.7011719e+02 7.8857706e+01 -1.6264562e+01
9.0087891e+02 7.8225459e+01 -1.6395722e+01
9.3310547e+02 7.8728978e+01 -1.1052935e+01
9.6533203e+02 7.9639100e+01 -1.5929534e+01
1.0004883e+03 7.9705604e+01 -1.9128298e+01
1.0356445e+03 7.9511642e+01 -2.7902824e+01
1.0722656e+03 7.8528376e+01 -2.8875963e+01
1.1088867e+03 7.7909498e+01 -2.9431810e+01
1.1484375e+03 7.7749988e+01 -2.1640765e+01
1.1894531e+03 7.8015148e+01 -2.0932123e+01
1.2304688e+03 7.8910474e+01 -2.0854612e+01
1.2744141e+03 7.8654276e+01 -2.4861235e+01
1.3198242e+03 7.9010908e+01 -2.7253232e+01
1.3666992e+03 7.8790398e+01 -2.6472131e+01
1.4135742e+03 7.9242488e+01 -2.6442906e+01
1.4633789e+03 7.9444239e+01 -2.9910007e+01
1.5161133e+03 7.9860194e+01 -3.3529804e+01
1.5688477e+03 7.9774997e+01 -3.4542167e+01
1.6245117e+03 8.0098279e+01 -3.9221431e+01
1.6816406e+03 7.9899991e+01 -4.4205410e+01
1.7416992e+03 7.9771732e+01 -4.5765205e+01
1.8032227e+03 8.0314463e+01 -5.1217220e+01
1.8662109e+03 8.0206293e+01 -5.8225492e+01
1.9321289e+03 7.9732519e+01 -6.5668320e+01
1.9995117e+03 7.9087965e+01 -7.1268020e+01
2.0698242e+03 7.8248618e+01 -7.8404917e+01
2.1430664e+03 7.7080894e+01 -8.5453874e+01
2.2192383e+03 7.5094886e+01 -8.8919104e+01
2.2968750e+03 7.3588420e+01 -8.6221962e+01
2.3789063e+03 7.2310291e+01 -8.5490649e+01
2.4624023e+03 7.0329231e+01 -8.2201570e+01
2.5488281e+03 6.9150061e+01 -6.6036346e+01
2.6396484e+03 6.9400482e+01 -5.6380724e+01
2.7319336e+03 6.8162778e+01 -4.6850999e+01
2.8286133e+03 6.9556287e+01 -3.9999711e+01
2.9282227e+03 7.0443417e+01 -3.3028603e+01
3.0307617e+03 7.1970768e+01 -3.4766447e+01
3.1376953e+03 7.2811762e+01 -4.2173616e+01
3.2490234e+03 7.1770704e+01 -5.1095800e+01
3.3632813e+03 7.0861766e+01 -3.9974270e+01
3.4819336e+03 7.2252935e+01 -4.4866151e+01
3.6049805e+03 7.1543495e+01 -4.6469817e+01
3.7324219e+03 7.0722139e+01 -4.9677649e+01
3.8642578e+03 7.0271636e+01 -3.7508746e+01
4.0004883e+03 7.1656675e+01 -3.9699038e+01
4.1411133e+03 7.0627025e+01 -4.1055918e+01
4.2875977e+03 7.1270484e+01 -3.7995750e+01
4.4384766e+03 7.0769929e+01 -3.6168842e+01
4.5952148e+03 7.1239309e+01 -3.6608360e+01
4.7563477e+03 7.1178150e+01 -3.1595390e+01
4.9248047e+03 7.1829694e+01 -3.1332175e+01
5.0976563e+03 7.2397297e+01 -2.8266871e+01
5.2778320e+03 7.3307393e+01 -3.0478761e+01
5.4638672e+03 7.4125807e+01 -3.3332827e+01
5.6572266e+03 7.4858074e+01 -3.8788539e+01
5.8564453e+03 7.5200886e+01 -4.3443832e+01
6.0629883e+03 7.5870091e+01 -5.2123532e+01
6.2768555e+03 7.6096991e+01 -5.8597559e+01
6.4980469e+03 7.5960227e+01 -7.0560102e+01
6.7265625e+03 7.4987663e+01 -7.8623394e+01
6.9638672e+03 7.4147921e+01 -8.0504320e+01
7.2099609e+03 7.4959325e+01 -8.2437083e+01
7.4648438e+03 7.5452109e+01 -9.3149891e+01
7.7270508e+03 7.5384141e+01 -1.0969445e+02
7.9995117e+03 7.5046991e+01 -1.2045308e+02
8.2822266e+03 7.4236687e+01 -1.3888082e+02
8.5737305e+03 7.1926061e+01 -1.5043315e+02
8.8769531e+03 6.9188889e+01 -1.5461803e+02
9.1889648e+03 6.7300524e+01 -1.4954843e+02
9.5141602e+03 6.7316936e+01 -1.4749687e+02
9.8496094e+03 6.7494035e+01 -1.5395342e+02
1.0196777e+04 6.6515824e+01 -1.6878892e+02
1.0555664e+04 6.4494088e+01 -1.7529217e+02
1.0927734e+04 6.3059725e+01 -1.7962079e+02
1.1312988e+04 6.0974535e+01 1.7864299e+02
1.1712891e+04 5.8975572e+01 -1.7441120e+02
1.2125977e+04 5.8351112e+01 -1.6502103e+02
1.2553711e+04 5.8971783e+01 -1.6748736e+02
1.2996094e+04 5.8766402e+01 -1.7202371e+02
1.3454590e+04 5.5830648e+01 1.7912761e+02
1.3929199e+04 5.3962477e+01 -1.7018183e+02
1.4419922e+04 5.3619986e+01 -1.4427748e+02
1.4928223e+04 5.6613004e+01 -1.3612324e+02
1.5455566e+04 5.9735672e+01 -1.4650122e+02
1.6000488e+04 6.1500095e+01 -1.6033146e+02
1.6564453e+04 6.2589290e+01 -1.7474864e+02
1.7148926e+04 6.3431415e+01 1.7070288e+02
1.7752441e+04 6.3859901e+01 1.5706942e+02
1.8379395e+04 6.3581686e+01 1.4214579e+02
1.9026855e+04 6.3404270e+01 1.3260425e+02
1.9697754e+04 6.3740825e+01 1.2281567e+02
1.9999512e+04 6.4489938e+01 1.1772917e+02
