Freq Spl Phase
20.5078 39.439613 0.0
21.9727 40.961613 0.0
23.4375 42.349613 0.0
24.9023 43.521614 0.0
26.3672 44.896614 0.0
27.832 46.218613 0.0
29.2969 47.493614 0.0
30.7617 48.742611 0.0
32.2266 49.973614 0.0
33.6914 51.158611 0.0
35.1562 52.265614 0.0
36.6211 53.156612 0.0
38.0859 54.227612 0.0
39.5508 55.287609 0.0
41.0156 56.321613 0.0
42.4805 57.329609 0.0
43.9453 58.311611 0.0
45.4102 59.269611 0.0
46.875 60.048611 0.0
48.3398 60.960613 0.0
51.2695 62.700611 0.0
52.7344 63.517612 0.0
54.1992 64.277611 0.0
55.6641 65.005608 0.0
58.5938 66.207611 0.0
60.0586 66.77861 0.0
62.9883 67.729607 0.0
64.4531 68.116608 0.0
67.3828 68.715607 0.0
68.8477 68.997612 0.0
71.7773 69.484612 0.0
74.707 69.865608 0.0
77.6367 70.12661 0.0
79.1016 70.239609 0.0
82.0312 70.414612 0.0
84.9609 70.536606 0.0
87.8906 70.61161 0.0
90.8203 70.660606 0.0
95.2148 70.700607 0.0
98.1445 70.705612 0.0
101.074 70.694611 0.0
105.469 70.64061 0.0
108.398 70.590607 0.0
112.793 70.503609 0.0
117.188 70.443611 0.0
120.117 70.425606 0.0
124.512 70.411606 0.0
128.906 70.400612 0.0
133.301 70.36261 0.0
139.16 70.239609 0.0
143.555 70.156609 0.0
147.949 70.094612 0.0
153.809 70.049606 0.0
159.668 70.008606 0.0
165.527 69.913612 0.0
171.387 69.721611 0.0
177.246 69.496613 0.0
183.105 69.374611 0.0
188.965 69.350609 0.0
196.289 69.261612 0.0
203.613 69.103607 0.0
210.938 69.039612 0.0
218.262 68.957611 0.0
225.586 68.790611 0.0
232.91 68.690605 0.0
241.699 68.586609 0.0
250.488 68.447609 0.0
259.277 68.43161 0.0
268.066 68.535606 0.0
276.855 68.65361 0.0
287.109 68.624611 0.0
297.363 68.436607 0.0
400.0 70.3106 0.0
412.0 70.4118 0.0
425.0 70.5393 0.0
437.0 70.6631 0.0
450.0 70.7932 0.0
462.0 70.9015 0.0
475.0 70.9992 0.0
487.0 71.0672 0.0
500.0 71.1154 0.0
515.0 71.1403 0.0
530.0 71.1366 0.0
545.0 71.1147 0.0
560.0 71.0858 0.0
580.0 71.0579 0.0
600.0 71.0651 0.0
615.0 71.0999 0.0
630.0 71.1594 0.0
650.0 71.2621 0.0
670.0 71.3662 0.0
690.0 71.4409 0.0
710.0 71.46 0.0
730.0 71.4064 0.0
750.0 71.2779 0.0
775.0 71.0251 0.0
800.0 70.7192 0.0
825.0 70.4311 0.0
850.0 70.2323 0.0
875.0 70.1499 0.0
900.0 70.16 0.0
925.0 70.1992 0.0
950.0 70.2 0.0
975.0 70.1187 0.0
1000.0 69.9491 0.0
1030.0 69.6726 0.0
1060.0 69.4108 0.0
1090.0 69.2603 0.0
1120.0 69.2484 0.0
1150.0 69.3147 0.0
1180.0 69.3671 0.0
1220.0 69.3185 0.0
1250.0 69.2044 0.0
1280.0 69.0914 0.0
1320.0 69.0548 0.0
1360.0 69.1684 0.0
1400.0 69.3013 0.0
1450.0 69.268 0.0
1500.0 68.9504 0.0
1550.0 68.5013 0.0
1600.0 68.0867 0.0
1650.0 67.6547 0.0
1700.0 67.0206 0.0
1750.0 66.1373 0.0
1800.0 65.2315 0.0
1850.0 64.6054 0.0
1900.0 64.2303 0.0
1950.0 63.833299999999994 0.0
2000.0 63.32899999999999 0.0
2060.0 62.7924 0.0
2120.0 62.3989 0.0
2180.0 62.012600000000006 0.0
2240.0 61.9336 0.0
2300.0 62.4901 0.0
2360.0 63.3537 0.0
2430.0 64.4451 0.0
2500.0 65.6541 0.0
2580.0 66.8399 0.0
2650.0 67.5303 0.0
2720.0 67.9207 0.0
2800.0 68.0365 0.0
2900.0 68.2032 0.0
3000.0 68.2115 0.0
3070.0 67.94 0.0
3150.0 67.9757 0.0
3250.0 67.8509 0.0
3350.0 67.075 0.0
3450.0 66.7849 0.0
3550.0 66.0297 0.0
3650.0 66.9645 0.0
3750.0 69.3867 0.0
3870.0 71.0783 0.0
4000.0 71.8893 0.0
4120.0 71.8733 0.0
4250.0 72.1318 0.0
4370.0 71.9315 0.0
4500.0 71.9271 0.0
4620.0 71.4985 0.0
4750.0 71.3749 0.0
4870.0 71.0457 0.0
5000.0 71.1913 0.0
5150.0 70.7584 0.0
5300.0 70.1654 0.0
5450.0 69.8703 0.0
5600.0 68.561 0.0
5800.0 67.5576 0.0
6000.0 67.0728 0.0
6150.0 66.5373 0.0
6300.0 66.2167 0.0
6500.0 66.1507 0.0
6700.0 65.765 0.0
6900.0 65.4182 0.0
7100.0 65.7781 0.0
7300.0 66.3612 0.0
7500.0 67.1341 0.0
7750.0 67.5656 0.0
8000.0 68.3362 0.0
8250.0 68.4832 0.0
8500.0 67.7806 0.0
8750.0 67.4706 0.0
9000.0 67.1322 0.0
9250.0 66.2908 0.0
9500.0 65.6801 0.0
9750.0 65.9932 0.0
10000.0 65.7867 0.0
10300.0 64.3429 0.0
10600.0 64.6929 0.0
10900.0 65.2428 0.0
11200.0 64.8452 0.0
11500.0 64.234 0.0
11800.0 63.236999999999995 0.0
12200.0 59.7485 0.0
12500.0 57.325 0.0
12800.0 59.7979 0.0
13200.0 61.9725 0.0
13600.0 62.6118 0.0
14000.0 61.9024 0.0
14500.0 61.0756 0.0
15000.0 60.6283 0.0
15500.0 58.4321 0.0
16000.0 56.7413 0.0
16500.0 57.4695 0.0
17000.0 58.6998 0.0
17500.0 57.6306 0.0
18000.0 56.9132 0.0
18500.0 55.8951 0.0
19000.0 54.8046 0.0
19500.0 54.8928 0.0
