Freq[Hz]     dBSPL  Phase[Deg]
2.0507813e+01 5.9259814e+01 1.6952267e+02
2.1972656e+01 6.0809395e+01 1.7273431e+02
2.3437500e+01 6.3344530e+01 1.6987153e+02
2.4902344e+01 6.3787323e+01 1.6402910e+02
2.6367188e+01 6.4604000e+01 1.6944807e+02
2.7832031e+01 6.5936773e+01 1.6835674e+02
2.9296875e+01 6.7047411e+01 1.6860763e+02
3.0761719e+01 6.7993758e+01 1.6869569e+02
3.2226563e+01 6.9001729e+01 1.6898761e+02
3.3691406e+01 6.9976519e+01 1.7004423e+02
3.5156250e+01 7.1171647e+01 1.6941470e+02
3.6621094e+01 7.2176505e+01 1.6795003e+02
3.8085938e+01 7.3058842e+01 1.6644963e+02
3.9550781e+01 7.3948651e+01 1.6531903e+02
4.1015625e+01 7.4744414e+01 1.6415291e+02
4.2480469e+01 7.5518163e+01 1.6258259e+02
4.3945313e+01 7.6251276e+01 1.6101283e+02
4.5410156e+01 7.6952808e+01 1.5944199e+02
4.6875000e+01 7.7623395e+01 1.5774283e+02
4.8339844e+01 7.8246809e+01 1.5605113e+02
5.1269531e+01 7.9462766e+01 1.5269875e+02
5.2734375e+01 8.0041552e+01 1.5106664e+02
5.4199219e+01 8.0595737e+01 1.4943305e+02
5.5664063e+01 8.1130190e+01 1.4776841e+02
5.8593750e+01 8.2153728e+01 1.4443242e+02
6.0058594e+01 8.2650260e+01 1.4264514e+02
6.2988281e+01 8.3597424e+01 1.3884664e+02
6.4453125e+01 8.4053652e+01 1.3701076e+02
6.7382813e+01 8.4937283e+01 1.3331064e+02
6.8847656e+01 8.5344900e+01 1.3141973e+02
7.1777344e+01 8.6106411e+01 1.2751370e+02
7.4707031e+01 8.6841606e+01 1.2351418e+02
7.7636719e+01 8.7546588e+01 1.1942057e+02
7.9101563e+01 8.7859716e+01 1.1737601e+02
8.2031250e+01 8.8384035e+01 1.1316753e+02
8.4960938e+01 8.8828864e+01 1.0886806e+02
8.7890625e+01 8.9227126e+01 1.0469878e+02
9.0820313e+01 8.9582185e+01 1.0058340e+02
9.5214844e+01 9.0032023e+01 9.4252219e+01
9.8144531e+01 9.0287307e+01 9.0254767e+01
1.0107422e+02 9.0517100e+01 8.6165671e+01
1.0546875e+02 9.0727299e+01 8.0128106e+01
1.0839844e+02 9.0845324e+01 7.6585273e+01
1.1279297e+02 9.1049745e+01 7.1269757e+01
1.1718750e+02 9.1263966e+01 6.5555650e+01
1.2011719e+02 9.1313810e+01 6.2002723e+01
1.2451172e+02 9.1379309e+01 5.7533976e+01
1.2890625e+02 9.1411939e+01 5.2984917e+01
1.3330078e+02 9.1416415e+01 4.9118922e+01
1.3916016e+02 9.1425356e+01 4.3481569e+01
1.4355469e+02 9.1257708e+01 3.9973943e+01
1.4794922e+02 9.1114049e+01 3.7463015e+01
1.5380859e+02 9.1063091e+01 3.4838925e+01
1.5966797e+02 9.1124795e+01 3.1392148e+01
1.6552734e+02 9.1053389e+01 2.8034818e+01
1.7138672e+02 9.1042579e+01 2.4346182e+01
1.7724609e+02 9.0687341e+01 2.0719450e+01
1.8310547e+02 9.0322714e+01 1.9702189e+01
1.8896484e+02 9.0281634e+01 2.0248354e+01
1.9628906e+02 9.0705591e+01 1.7155085e+01
2.0361328e+02 9.0373628e+01 1.2909180e+01
2.1093750e+02 8.9847908e+01 1.3768639e+01
2.1826172e+02 9.0412002e+01 1.4351060e+01
2.2558594e+02 9.0645651e+01 1.1350934e+01
2.3291016e+02 9.0899289e+01 8.1458723e+00
2.4169922e+02 9.0544467e+01 3.9458867e+00
2.5048828e+02 9.0641016e+01 2.9551527e+00
2.5927734e+02 9.0741258e+01 -6.9407632e-01
2.6806641e+02 9.0515366e+01 -5.2904242e+00
2.7685547e+02 8.9766774e+01 -5.6677732e+00
2.8710938e+02 9.0154790e+01 -2.9865420e+00
2.9736328e+02 9.0700248e+01 -6.9764281e+00
3.0761719e+02 9.0354359e+01 -1.1902413e+01
3.1933594e+02 9.0026733e+01 -1.3966837e+01
3.2958984e+02 9.0068504e+01 -1.2363805e+01
3.4130859e+02 9.0426512e+01 -1.6623286e+01
3.5302734e+02 9.0191167e+01 -2.1842012e+01
3.6621094e+02 8.9483810e+01 -2.2710804e+01
3.7939453e+02 8.9607691e+01 -2.0969465e+01
3.9257813e+02 9.0041322e+01 -2.4508195e+01
4.0576172e+02 8.9550470e+01 -2.9067785e+01
4.2041016e+02 8.9254296e+01 -2.6590569e+01
4.3505859e+02 8.9712259e+01 -2.8966694e+01
4.5117188e+02 8.9091159e+01 -3.1750978e+01
4.6582031e+02 8.9363627e+01 -2.9901353e+01
4.8339844e+02 8.9539164e+01 -3.5626197e+01
4.9951172e+02 8.9313894e+01 -3.6962096e+01
5.1708984e+02 8.9000252e+01 -3.8119408e+01
5.3613281e+02 8.8861783e+01 -3.7479201e+01
5.5517578e+02 8.9175143e+01 -3.4993792e+01
5.7421875e+02 9.0283579e+01 -3.5414794e+01
5.9472656e+02 9.0438723e+01 -4.3504606e+01
6.1523438e+02 9.0548216e+01 -4.7335509e+01
6.3720703e+02 9.0368109e+01 -4.9919518e+01
6.5917969e+02 9.0753421e+01 -5.2500959e+01
6.8261719e+02 9.0723270e+01 -5.8200100e+01
7.0751953e+02 9.1230698e+01 -6.0101665e+01
7.3242188e+02 9.1275618e+01 -6.6115361e+01
7.5732422e+02 9.1503172e+01 -7.3700753e+01
7.8515625e+02 9.0499561e+01 -8.0191855e+01
8.1152344e+02 9.0424724e+01 -8.5628504e+01
8.4082031e+02 8.9873820e+01 -8.7429048e+01
8.7011719e+02 8.9534316e+01 -8.9790490e+01
9.0087891e+02 9.0218465e+01 -9.2274837e+01
9.3310547e+02 8.9830198e+01 -9.7521868e+01
9.6533203e+02 8.9228906e+01 -1.0488317e+02
1.0004883e+03 8.8529811e+01 -1.0744285e+02
1.0356445e+03 8.8274058e+01 -1.0558643e+02
1.0722656e+03 8.8582955e+01 -1.0327534e+02
1.1088867e+03 8.9288919e+01 -1.0686088e+02
1.1484375e+03 8.9944697e+01 -1.1520268e+02
1.1894531e+03 9.0274248e+01 -1.2224666e+02
1.2304688e+03 9.0196835e+01 -1.3045534e+02
1.2744141e+03 9.0178577e+01 -1.3851710e+02
1.3198242e+03 8.9509700e+01 -1.4606573e+02
1.3666992e+03 8.9297130e+01 -1.5119934e+02
1.4135742e+03 8.9045149e+01 -1.5554263e+02
1.4633789e+03 8.9159123e+01 -1.6110748e+02
1.5161133e+03 8.9277761e+01 -1.6931194e+02
1.5688477e+03 8.9127523e+01 -1.7748631e+02
1.6245117e+03 8.8641335e+01 1.7669549e+02
1.6816406e+03 8.8669922e+01 1.7022291e+02
1.7416992e+03 8.9031654e+01 1.6225564e+02
1.8032227e+03 8.8700086e+01 1.5238867e+02
1.8662109e+03 8.8248765e+01 1.4526756e+02
1.9321289e+03 8.8551271e+01 1.4164207e+02
1.9995117e+03 8.8768054e+01 1.3324847e+02
2.0698242e+03 8.9261893e+01 1.1909910e+02
2.1430664e+03 8.7937033e+01 1.0587754e+02
2.2192383e+03 8.7734144e+01 1.0242831e+02
2.2968750e+03 8.7952517e+01 9.4204245e+01
2.3789063e+03 8.7326878e+01 8.0776253e+01
2.4624023e+03 8.6927087e+01 8.0390208e+01
2.5488281e+03 8.6874255e+01 7.1809464e+01
2.6396484e+03 8.6541160e+01 6.2462134e+01
2.7319336e+03 8.5763241e+01 5.7871112e+01
2.8286133e+03 8.5959928e+01 5.5422542e+01
2.9282227e+03 8.6028399e+01 4.7994468e+01
3.0307617e+03 8.5389651e+01 4.7069445e+01
3.1376953e+03 8.6251339e+01 4.4079826e+01
3.2490234e+03 8.6209924e+01 3.7372126e+01
3.3632813e+03 8.6135542e+01 3.2288756e+01
3.4819336e+03 8.6344580e+01 2.5138993e+01
3.6049805e+03 8.5848254e+01 1.7397944e+01
3.7324219e+03 8.5501648e+01 1.4226061e+01
3.8642578e+03 8.5395309e+01 1.3566187e+01
4.0004883e+03 8.5887361e+01 7.2710370e+00
4.1411133e+03 8.6234824e+01 6.2027118e+00
4.2875977e+03 8.7429792e+01 -2.7591248e-01
4.4384766e+03 8.7577973e+01 -1.1300328e+01
4.5952148e+03 8.7883890e+01 -2.1202966e+01
4.7563477e+03 8.7619297e+01 -2.9327449e+01
4.9248047e+03 8.7151346e+01 -3.7831684e+01
5.0976563e+03 8.6682052e+01 -4.2158606e+01
5.2778320e+03 8.6446521e+01 -4.6215929e+01
5.4638672e+03 8.6503552e+01 -5.1494105e+01
5.6572266e+03 8.6972541e+01 -5.6212853e+01
5.8564453e+03 8.6661716e+01 -6.0406197e+01
6.0629883e+03 8.7018835e+01 -6.8246686e+01
6.2768555e+03 8.7149100e+01 -7.3465159e+01
6.4980469e+03 8.7503960e+01 -8.0540110e+01
6.7265625e+03 8.7791949e+01 -8.7828205e+01
6.9638672e+03 8.8019725e+01 -9.7276579e+01
7.2099609e+03 8.8206335e+01 -1.0557038e+02
7.4648438e+03 8.8184764e+01 -1.1372958e+02
7.7270508e+03 8.8422361e+01 -1.2280220e+02
7.9995117e+03 8.8550348e+01 -1.3033233e+02
8.2822266e+03 8.8512100e+01 -1.3820149e+02
8.5737305e+03 8.8771351e+01 -1.4738866e+02
8.8769531e+03 8.9137115e+01 -1.5850683e+02
9.1889648e+03 8.8920049e+01 -1.6838810e+02
9.5141602e+03 8.8731898e+01 -1.7609797e+02
9.8496094e+03 8.8734280e+01 1.7571705e+02
1.0196777e+04 8.8850653e+01 1.6799799e+02
1.0555664e+04 8.9212592e+01 1.5898142e+02
1.0927734e+04 8.9159924e+01 1.4804835e+02
1.1312988e+04 8.9096945e+01 1.3916103e+02
1.1712891e+04 8.9021203e+01 1.3023070e+02
1.2125977e+04 8.9142974e+01 1.2149121e+02
1.2553711e+04 8.9396460e+01 1.1127292e+02
1.2996094e+04 8.9737728e+01 9.9503293e+01
1.3454590e+04 8.9875684e+01 8.4855212e+01
1.3929199e+04 8.9886079e+01 6.9661589e+01
1.4419922e+04 8.9668521e+01 5.3595725e+01
1.4928223e+04 8.9394077e+01 3.8274861e+01
1.5455566e+04 8.9263614e+01 2.2310203e+01
1.6000488e+04 8.9055645e+01 4.9530830e+00
1.6564453e+04 8.8862546e+01 -1.0753373e+01
1.7148926e+04 8.8491605e+01 -2.1147136e+01
1.7752441e+04 8.8583944e+01 -3.5645300e+01
1.8379395e+04 8.8226814e+01 -5.2263398e+01
1.9026855e+04 8.7910354e+01 -6.8962700e+01
1.9697754e+04 8.7283838e+01 -8.5613771e+01
1.9999512e+04 8.6890555e+01 -9.2709330e+01
