Freq[Hz]     dBSPL  Phase[Deg]
2.0507813e+01 7.4798127e+01 -6.4946727e+01
2.1972656e+01 7.5785917e+01 -6.9284120e+01
2.3437500e+01 7.6448677e+01 -7.6572358e+01
2.4902344e+01 7.7232555e+01 -8.4002636e+01
2.6367188e+01 7.7511053e+01 -9.2145792e+01
2.7832031e+01 7.8129210e+01 -9.9636329e+01
2.9296875e+01 7.8480237e+01 -1.0733128e+02
3.0761719e+01 7.8784533e+01 -1.1431885e+02
3.2226563e+01 7.9059085e+01 -1.2110310e+02
3.3691406e+01 7.9324992e+01 -1.2678810e+02
3.5156250e+01 7.9620836e+01 -1.3235921e+02
3.6621094e+01 7.9901543e+01 -1.3759585e+02
3.8085938e+01 8.0172903e+01 -1.4231150e+02
3.9550781e+01 8.0533082e+01 -1.4688168e+02
4.1015625e+01 8.0843892e+01 -1.5127606e+02
4.2480469e+01 8.1130651e+01 -1.5552561e+02
4.3945313e+01 8.1428415e+01 -1.5942161e+02
4.5410156e+01 8.1729699e+01 -1.6300007e+02
4.6875000e+01 8.2049472e+01 -1.6648222e+02
4.8339844e+01 8.2367126e+01 -1.6993954e+02
5.1269531e+01 8.3010012e+01 -1.7659994e+02
5.2734375e+01 8.3322689e+01 -1.7971560e+02
5.4199219e+01 8.3632269e+01 1.7727580e+02
5.5664063e+01 8.3939923e+01 1.7429969e+02
5.8593750e+01 8.4533344e+01 1.6851009e+02
6.0058594e+01 8.4830093e+01 1.6559183e+02
6.2988281e+01 8.5399171e+01 1.5981269e+02
6.4453125e+01 8.5692395e+01 1.5725265e+02
6.7382813e+01 8.6318476e+01 1.5231873e+02
6.8847656e+01 8.6620810e+01 1.4957152e+02
7.1777344e+01 8.7168338e+01 1.4374091e+02
7.4707031e+01 8.7676295e+01 1.3772706e+02
7.7636719e+01 8.8150897e+01 1.3203547e+02
7.9101563e+01 8.8356391e+01 1.2922670e+02
8.2031250e+01 8.8672681e+01 1.2350290e+02
8.4960938e+01 8.8942032e+01 1.1770823e+02
8.7890625e+01 8.9175281e+01 1.1203567e+02
9.0820313e+01 8.9357086e+01 1.0650383e+02
9.5214844e+01 8.9620074e+01 9.8464796e+01
9.8144531e+01 8.9809792e+01 9.3169122e+01
1.0107422e+02 8.9965695e+01 8.7344720e+01
1.0546875e+02 8.9997455e+01 7.8553921e+01
1.0839844e+02 8.9944635e+01 7.3312809e+01
1.1279297e+02 8.9901601e+01 6.6296242e+01
1.1718750e+02 8.9960969e+01 5.9053550e+01
1.2011719e+02 8.9958456e+01 5.4281000e+01
1.2451172e+02 8.9799465e+01 4.7461926e+01
1.2890625e+02 8.9619527e+01 4.1867043e+01
1.3330078e+02 8.9456471e+01 3.6935253e+01
1.3916016e+02 8.9453018e+01 3.1106690e+01
1.4355469e+02 8.9375342e+01 2.5649721e+01
1.4794922e+02 8.9149648e+01 2.0833327e+01
1.5380859e+02 8.8893700e+01 1.6650598e+01
1.5966797e+02 8.8997875e+01 1.1070207e+01
1.6552734e+02 8.8635003e+01 4.4235786e+00
1.7138672e+02 8.8243242e+01 2.1035100e+00
1.7724609e+02 8.8352510e+01 -2.5543158e+00
1.8310547e+02 8.8044029e+01 -8.0940302e+00
1.8896484e+02 8.7499694e+01 -1.0957302e+01
1.9628906e+02 8.7585014e+01 -1.1205155e+01
2.0361328e+02 8.7898079e+01 -1.6336773e+01
2.1093750e+02 8.8142816e+01 -2.1581384e+01
2.1826172e+02 8.7817547e+01 -3.1748446e+01
2.2558594e+02 8.6964686e+01 -3.7015085e+01
2.3291016e+02 8.5928110e+01 -3.5314425e+01
2.4169922e+02 8.6789445e+01 -3.7454856e+01
2.5048828e+02 8.6487404e+01 -4.2468025e+01
2.5927734e+02 8.6510364e+01 -4.5618723e+01
2.6806641e+02 8.6567386e+01 -5.0073304e+01
2.7685547e+02 8.6549331e+01 -5.6515715e+01
2.8710938e+02 8.5798201e+01 -6.4324508e+01
2.9736328e+02 8.5034804e+01 -6.6337134e+01
3.0761719e+02 8.4746973e+01 -6.7535839e+01
3.1933594e+02 8.4913928e+01 -6.6816135e+01
3.2958984e+02 8.4814112e+01 -7.3422502e+01
3.4130859e+02 8.4594103e+01 -7.6668925e+01
3.5302734e+02 8.4663041e+01 -7.7382958e+01
3.6621094e+02 8.4939785e+01 -8.4661077e+01
3.7939453e+02 8.4073257e+01 -9.4261434e+01
3.9257813e+02 8.3538179e+01 -9.2369964e+01
4.0576172e+02 8.3337262e+01 -9.4533100e+01
4.2041016e+02 8.3359035e+01 -9.6310701e+01
4.3505859e+02 8.3558254e+01 -1.0310810e+02
4.5117188e+02 8.3654192e+01 -9.7185805e+01
4.6582031e+02 8.4881929e+01 -1.0964178e+02
4.8339844e+02 8.4090480e+01 -1.1564226e+02
4.9951172e+02 8.3665000e+01 -1.2878003e+02
5.1708984e+02 8.3020582e+01 -1.2533637e+02
5.3613281e+02 8.2833070e+01 -1.3067011e+02
5.5517578e+02 8.3292556e+01 -1.3095410e+02
5.7421875e+02 8.3745044e+01 -1.4708251e+02
5.9472656e+02 8.1465784e+01 -1.4372445e+02
6.1523438e+02 8.2788975e+01 -1.4807727e+02
6.3720703e+02 8.3086608e+01 -1.4984035e+02
6.5917969e+02 8.3787492e+01 -1.6458077e+02
6.8261719e+02 8.2209809e+01 -1.7286521e+02
7.0751953e+02 8.3201465e+01 -1.7768761e+02
7.3242188e+02 8.2818330e+01 1.7908312e+02
7.5732422e+02 8.2700340e+01 1.6206742e+02
7.8515625e+02 8.1641602e+01 1.6209510e+02
8.1152344e+02 8.1105489e+01 1.4670935e+02
8.4082031e+02 8.1317715e+01 1.4570706e+02
8.7011719e+02 7.8736572e+01 1.4853415e+02
9.0087891e+02 8.0181076e+01 1.4820841e+02
9.3310547e+02 8.3547185e+01 1.4759906e+02
9.6533203e+02 8.4891617e+01 1.2218010e+02
1.0004883e+03 8.4361196e+01 9.3529454e+01
1.0356445e+03 8.2411166e+01 7.1497733e+01
1.0722656e+03 7.7752080e+01 7.1133474e+01
1.1088867e+03 7.6362488e+01 7.1147164e+01
1.1484375e+03 7.8683931e+01 6.8972408e+01
1.1894531e+03 7.9559552e+01 5.1864086e+01
1.2304688e+03 7.7466459e+01 3.4375423e+01
1.2744141e+03 7.3945716e+01 3.1602204e+01
1.3198242e+03 7.2567115e+01 2.3376119e+01
1.3666992e+03 7.1848176e+01 2.8975416e+01
1.4135742e+03 7.0090989e+01 2.4669072e+01
1.4633789e+03 7.1615998e+01 2.9529295e+01
1.5161133e+03 7.1953785e+01 6.2184486e+00
1.5688477e+03 7.0204138e+01 -6.5496412e+00
1.6245117e+03 6.8972116e+01 -6.8467486e+00
1.6816406e+03 6.8964535e+01 -4.0536186e+00
1.7416992e+03 6.9884848e+01 -1.3985975e+01
1.8032227e+03 6.9345833e+01 -3.4839547e+01
1.8662109e+03 6.5696365e+01 -6.0014177e+01
1.9321289e+03 7.0641649e+01 -2.7448052e+01
1.9995117e+03 7.1221731e+01 -5.7131240e+01
2.0698242e+03 6.8713205e+01 -1.0594187e+02
2.1430664e+03 6.1325289e+01 -1.1743216e+02
2.2192383e+03 6.3258879e+01 -7.6959090e+01
2.2968750e+03 6.1718685e+01 -5.1053375e+01
2.3789063e+03 6.2903228e+01 -1.0449155e+02
2.4624023e+03 6.8789088e+01 -8.4662063e+01
2.5488281e+03 6.0100855e+01 -1.1582916e+02
2.6396484e+03 5.6834083e+01 -1.0726112e+02
2.7319336e+03 6.2996725e+01 -1.0509580e+02
2.8286133e+03 6.6055036e+01 -1.3655866e+02
2.9282227e+03 6.5122039e+01 -1.4394838e+02
3.0307617e+03 6.7562858e+01 -1.6657858e+02
3.1376953e+03 6.0770481e+01 1.5229405e+02
3.2490234e+03 6.7351041e+01 1.6973159e+02
3.3632813e+03 6.1328295e+01 1.5925932e+02
3.4819336e+03 6.7781500e+01 1.2558459e+02
3.6049805e+03 6.6410457e+01 1.4369324e+02
3.7324219e+03 6.0280581e+01 1.1695849e+02
3.8642578e+03 6.9169091e+01 9.8670861e+01
4.0004883e+03 6.8999530e+01 7.1571766e+01
4.1411133e+03 6.6673437e+01 4.8701559e+01
4.2875977e+03 6.4945535e+01 4.5880736e+01
4.4384766e+03 6.6980937e+01 2.5859163e+01
4.5952148e+03 6.4880033e+01 3.7203476e+00
4.7563477e+03 6.6879762e+01 1.0905263e+01
4.9248047e+03 6.7547863e+01 -2.3908294e+01
5.0976563e+03 6.5048364e+01 -5.1174728e+01
5.2778320e+03 6.5213257e+01 -5.4816289e+01
5.4638672e+03 6.2916797e+01 -9.3156848e+01
5.6572266e+03 6.3407666e+01 -9.7088030e+01
5.8564453e+03 6.1342460e+01 -1.0788668e+02
6.0629883e+03 6.2518596e+01 -1.3272760e+02
6.2768555e+03 6.0946174e+01 -1.5422388e+02
6.4980469e+03 6.1157222e+01 1.7215995e+02
6.7265625e+03 5.7152631e+01 1.5357395e+02
6.9638672e+03 5.8461061e+01 1.3876132e+02
7.2099609e+03 5.6945614e+01 1.1904312e+02
7.4648438e+03 5.7490425e+01 9.7803141e+01
7.7270508e+03 5.8064202e+01 7.2696019e+01
7.9995117e+03 5.9158076e+01 6.5564371e+01
8.2822266e+03 5.8609822e+01 3.3029444e+01
8.5737305e+03 5.9628637e+01 4.2733264e+00
8.8769531e+03 5.7257411e+01 -1.1775702e+01
9.1889648e+03 5.7475677e+01 -3.0443390e+01
9.5141602e+03 5.9063937e+01 -4.3844686e+01
9.8496094e+03 5.8213634e+01 -6.1271258e+01
1.0196777e+04 5.8318716e+01 -7.6840060e+01
1.0555664e+04 5.9871505e+01 -9.2243962e+01
1.0927734e+04 6.0524771e+01 -1.0870484e+02
1.1312988e+04 6.0857294e+01 -1.2867497e+02
1.1712891e+04 6.1138042e+01 -1.4884115e+02
1.2125977e+04 6.1250400e+01 -1.6944378e+02
1.2553711e+04 6.1402313e+01 1.7025662e+02
1.2996094e+04 6.1176010e+01 1.4682704e+02
1.3454590e+04 5.9916027e+01 1.2704586e+02
1.3929199e+04 5.8386811e+01 1.1429393e+02
1.4419922e+04 5.7978946e+01 1.1101075e+02
1.4928223e+04 5.8110623e+01 8.9680332e+01
1.5455566e+04 5.7857717e+01 7.1801214e+01
1.6000488e+04 5.8482943e+01 6.3495154e+01
1.6564453e+04 5.9513725e+01 3.9434227e+01
1.7148926e+04 5.8911062e+01 1.5386172e+01
1.7752441e+04 5.6879233e+01 -7.6810673e+00
1.8379395e+04 5.4596641e+01 -1.2586383e+01
1.9026855e+04 5.5695014e+01 -1.2910380e+01
1.9697754e+04 5.6822475e+01 -3.9817741e+01
1.9999512e+04 5.5909110e+01 -6.8889577e+01
