* Frequency Power response 0
5 27.066639333789 0
5.07272667468762 26.8831794899938 0
5.14651118321746 26.6032571913616 0
5.22136891213707 26.3347247236294 0
5.29731547179648 26.0795552373017 0
5.37436669960348 25.8219154315827 0
5.45253866332629 25.5130616302716 0
5.53184766444417 25.055765056869 0
5.61231024154687 24.4621522275462 0
5.69394317378346 23.8719213750649 0
5.77676348436136 23.3748983643605 0
5.86078844409626 22.9744056195663 0
5.9460355750136 22.6207697360821 0
6.03252265400261 22.2404644812991 0
6.12026771652328 21.8040994286653 0
6.20928906036742 21.300186817087 0
6.29960524947437 20.7020989708239 0
6.39123511780215 20.0093278048161 0
6.48419777325505 19.2343974278843 0
6.57851260166819 18.3334033648796 0
6.67419927085017 17.222051669045 0
6.77127773468446 15.8937749800887 0
6.86976823729045 14.3755665702794 0
6.969691317245 12.7015504445996 0
7.07106781186548 11.1050233572666 0
7.173918861555 10.0315103393954 0
7.27826591421094 10.0910084542795 0
7.3841307296975 11.411022152281 0
7.49153538438341 13.0740080460807 0
7.60050227574557 14.4776865884475 0
7.7110541270397 15.6421592112507 0
7.82321399203887 16.6462779025104 0
7.937005259841 17.4552065986165 0
8.05245165974627 18.0555043705468 0
8.1695772662055 18.4742469067619 0
8.28840650384044 18.752729833064 0
8.40896415253714 18.8878994617057 0
8.53127535261343 18.8248918067191 0
8.65536561006143 18.5425151911115 0
8.7812608018665 18.1124292375328 0
8.90898718140339 17.5726059968997 0
9.03857138391101 16.769425569935 0
9.17004043204671 15.6681577092478 0
9.30342174152147 14.3637604656024 0
9.43874312681693 12.6493951692737 0
9.57603280698574 10.5605337286548 0
9.71531941153606 8.9089592543353 0
9.85663198640188 8.58300214720393 0
10 9.6795033002321 0
10.1454533493752 11.2799583239962 0
10.2930223664349 12.5470116533249 0
10.4427378242741 13.3332255298775 0
10.594630943593 13.7380364059539 0
10.748733399207 13.7191637471865 0
10.9050773266526 13.2955421719121 0
11.0636953288883 12.3830066794806 0
11.2246204830937 10.9345869602016 0
11.3878863475669 9.21478378188592 0
11.5535269687227 8.30442828987131 0
11.7215768881925 9.42549848027762 0
11.8920711500272 11.5860201512721 0
12.0650453080052 13.5913061491675 0
12.2405354330466 15.1268162331053 0
12.4185781207348 16.3449578040643 0
12.5992104989487 17.19700077802 0
12.7824702356043 17.5718298743217 0
12.9683955465101 17.3393865084686 0
13.1570252033364 16.5193702698636 0
13.3483985417003 15.2559686769463 0
13.5425554693689 14.2295570776309 0
13.7395364745809 14.8625127739624 0
13.93938263449 16.8780710191503 0
14.142135623731 19.0680956770687 0
14.34783772311 20.9574472393917 0
14.5565318284219 22.4039158195126 0
14.768261459395 23.3850463093986 0
14.9830707687668 23.885689839054 0
15.2010045514911 23.8916417600457 0
15.4221082540794 23.4673674189604 0
15.6464279840777 22.6665378609479 0
15.874010519682 21.7020949804114 0
16.1049033194925 21.4167932176394 0
16.339154532411 22.7228283275794 0
16.5768130076809 24.9197458876898 0
16.8179283050743 27.2209393211459 0
17.0625507052269 29.3260332388916 0
17.3107312201229 31.1093836295716 0
17.562521603733 32.4602763362154 0
17.8179743628068 33.3909924997991 0
18.077142767822 34.0952977633309 0
18.3400808640934 34.6066956902196 0
18.6068434830429 34.8863695878833 0
18.8774862536339 35.0506928167052 0
19.1520656139715 35.2092687348352 0
19.4306388230721 35.4943585997811 0
19.7132639728038 35.9803151561485 0
20 36.6212030635399 0
20.2909066987505 37.4642942570428 0
20.5860447328698 38.3768699126051 0
20.8854756485483 39.157171745294 0
21.1892618871859 39.8560001701132 0
21.4974667984139 40.5444192682168 0
21.8101546533052 41.1873834962637 0
22.1273906577767 41.8136447493563 0
22.4492409661875 42.4606188560584 0
22.7757726951338 43.0939697680429 0
23.1070539374455 43.7249535230773 0
23.443153776385 44.3751427570633 0
23.7841423000544 45.0604070686715 0
24.1300906160104 45.7760041275785 0
24.4810708660931 46.4656084803536 0
24.8371562414697 47.1356037618397 0
25.1984209978975 47.7554390544924 0
25.5649404712086 48.3315485550624 0
25.9367910930202 48.9608471868666 0
26.3140504066728 49.6479987506936 0
26.6967970834007 50.2940723171505 0
27.0851109387379 50.8706513349249 0
27.4790729491618 51.4554143666222 0
27.87876526898 52.0913969532225 0
28.2842712474619 52.7405026893392 0
28.69567544622 53.4130832988716 0
29.1130636568437 54.141285027967 0
29.53652291879 54.8888704971491 0
29.9661415375336 55.6174738458954 0
30.4020091029823 56.304683237536 0
30.8442165081588 56.971966467785 0
31.2928559681555 57.6692244271512 0
31.748021039364 58.4090487210025 0
32.2098066389851 59.152644239868 0
32.678309064822 59.8829856697964 0
33.1536260153617 60.6497796963745 0
33.6358566101486 61.4350122070289 0
34.1251014104537 62.2091210004082 0
34.6214624402457 62.9910664866718 0
35.125043207466 63.7654054868827 0
35.6359487256136 64.53202144018 0
36.154285535644 65.3383799760674 0
36.6801617281868 66.1760468081837 0
37.2136869660859 66.9925024888568 0
37.7549725072677 67.7731430994818 0
38.3041312279429 68.5445629750709 0
38.8612776461442 69.3101969039672 0
39.4265279456075 70.0677101139236 0
40 70.8476234561679 0
40.581813397501 71.6399834079398 0
41.1720894657397 72.4133244837641 0
41.7709512970966 73.1674164725786 0
42.3785237743718 73.8885866448196 0
42.9949335968278 74.5560090894842 0
43.6203093066103 75.1903603896763 0
44.2547813155533 75.8542051989079 0
44.8984819323749 76.5717208704217 0
45.5515453902677 77.3145929468164 0
46.2141078748909 78.0567005218669 0
46.88630755277 78.8014775341819 0
47.5682846001088 79.5346533207617 0
48.2601812320209 80.2086224006071 0
48.9621417321862 80.8217598523567 0
49.6743124829394 81.3897719969353 0
50.3968419957949 81.8863761578353 0
51.1298809424172 82.2928399417977 0
51.8735821860404 82.625173929395 0
52.6281008133455 82.892891031028 0
53.3935941668014 83.0778642959108 0
54.1702218774757 83.1871751037433 0
54.9581458983236 83.2374956708148 0
55.75753053796 83.2221859589622 0
56.5685424949238 83.1562054221762 0
57.39135089244 83.0509414233001 0
58.2261273136875 82.9058237977728 0
59.07304583758 82.7303351672236 0
59.9322830750673 82.5253236498691 0
60.8040182059646 82.2907071628268 0
61.6884330163176 82.0472635035646 0
62.585711936311 81.81214519205 0
63.496042078728 81.5705070832492 0
64.4196132779702 81.3202166334452 0
65.356618129644 81.0752175414634 0
66.3072520307235 80.8497968435421 0
67.2717132202972 80.6586293459085 0
68.2502028209074 80.494262042945 0
69.2429248804914 80.3420512160485 0
70.250086414932 80.1983403678058 0
71.2718974512271 80.075941221207 0
72.3085710712881 79.9715057242865 0
73.3603234563737 79.8705591317715 0
74.4273739321717 79.777232557134 0
75.5099450145355 79.6983033646912 0
76.6082624558859 79.6306498624588 0
77.7225552922885 79.5750619325085 0
78.853055891215 79.5333424147315 0
80 79.5083609917976 0
81.1636267950019 79.4891711391276 0
82.3441789314794 79.463030693565 0
83.5419025941931 79.4376779762436 0
84.7570475487436 79.4195890332187 0
85.9898671936557 79.4001348158902 0
87.2406186132206 79.385468285631 0
88.5095626311066 79.369360217906 0
89.7969638647499 79.3611416216176 0
91.1030907805353 79.3692960128013 0
92.4282157497818 79.3839818357817 0
93.7726151055401 79.4068339399808 0
95.1365692002177 79.4306585976331 0
96.5203624640417 79.4545144971331 0
97.9242834643725 79.4840715409417 0
99.3486249658787 79.5003893575483 0
100.79368399159 79.5141693685303 0
102.259761884834 79.5378380799979 0
103.747164372081 79.5488641379112 0
105.256201626691 79.5443789013861 0
106.787188333603 79.5368697619722 0
108.340443754951 79.5339936630397 0
109.916291796647 79.5380920813013 0
111.51506107592 79.542679845459 0
113.137084989848 79.547716173499 0
114.78270178488 79.5573894858608 0
116.452254627375 79.5718210651448 0
118.14609167516 79.5916069733516 0
119.864566150135 79.6156381304737 0
121.608036411929 79.6373782449744 0
123.376866032635 79.6468775155696 0
125.171423872622 79.6062739888016 0
126.992084157456 79.4800621372585 0
128.83922655594 79.3331802510079 0
130.713236259288 79.2419831575266 0
132.614504061447 79.2087376852723 0
134.543426440594 79.2154460800622 0
136.500405641815 79.2270751208698 0
138.485849760983 79.2317982824246 0
140.500172829864 79.2497533323375 0
142.543794902454 79.2824474634859 0
144.617142142576 79.3034730011565 0
146.720646912747 79.3001301923764 0
148.854747864343 79.2667434873308 0
151.019890029071 79.1755903718744 0
153.216524911772 79.0421151750044 0
155.445110584577 78.9055051579175 0
157.70611178243 78.8010538576132 0
160 78.7377997052083 0
162.327253590004 78.6765836296893 0
164.688357862959 78.5977651229757 0
167.083805188386 78.5341885548787 0
169.514095097487 78.4991095798258 0
171.979734387311 78.4637526359659 0
174.481237226441 78.419531655123 0
177.019125262213 78.3837256147378 0
179.5939277295 78.3693446745956 0
182.206181561071 78.3909850444481 0
184.856431499564 78.4504128229589 0
187.54523021108 78.5274457536966 0
190.273138400435 78.6076446244885 0
193.040724928083 78.6667906506983 0
195.848566928745 78.6474415527346 0
198.697249931757 78.489873682771 0
201.58736798318 78.2123770302769 0
204.519523769669 77.9335097778476 0
207.494328744162 77.7743569609296 0
210.512403253382 77.7693797598205 0
213.574376667206 77.8623976162644 0
216.680887509903 77.9722532854076 0
219.832583593294 78.066551090313 0
223.03012215184 78.1360569381902 0
226.274169979695 78.1503164782062 0
229.56540356976 78.1132546472431 0
232.90450925475 78.073965537345 0
236.29218335032 78.069984419689 0
239.729132300269 78.1174621830131 0
243.216072823858 78.2142633859594 0
246.753732065271 78.3134682941364 0
250.342847745244 78.3685865965609 0
253.984168314912 78.3399745451373 0
257.678453111881 78.1924629572874 0
261.426472518576 77.9918492601874 0
265.229008122894 77.8705167233189 0
269.086852881189 77.8685591349791 0
273.00081128363 77.942620184061 0
276.971699521966 78.0588038271537 0
281.000345659728 78.1490448390302 0
285.087589804909 78.1539364006067 0
289.234284285152 78.115668059773 0
293.441293825495 78.0967799426884 0
297.709495728687 78.0991629451326 0
302.039780058142 78.1040090952851 0
306.433049823544 78.1326452996897 0
310.890221169154 78.1867935489005 0
315.41222356486 78.2521642895585 0
320 78.3329580883623 0
324.654507180007 78.4076862392288 0
329.376715725918 78.4350455135044 0
334.167610376772 78.4145847179345 0
339.028190194974 78.3473633517523 0
343.959468774623 78.238032890702 0
348.962474452882 78.1446749099289 0
354.038250524427 78.0889738160777 0
359.187855458999 78.008563911524 0
364.412363122141 77.8524745082595 0
369.712862999127 77.6473057317748 0
375.090460422161 77.4662007293785 0
380.546276800871 77.3374515006588 0
386.081449856167 77.2288877943236 0
391.69713385749 77.1188463803211 0
397.394499863515 77.0217304700286 0
403.174735966359 76.952209922914 0
409.039047539338 76.909612525861 0
414.988657488323 76.8898989787785 0
421.024806506764 76.8893467323789 0
427.148753334411 76.9037786558695 0
433.361775019806 76.9302320796372 0
439.665167186588 76.9656557484494 0
446.06024430368 77.0056164263594 0
452.54833995939 77.0474314174009 0
459.13080713952 77.0900537862949 0
465.8090185095 77.1312920930127 0
472.58436670064 77.1684329469722 0
479.458264600538 77.1997558478303 0
486.432145647717 77.2235843351398 0
493.507464130541 77.2377419680449 0
500.685695490488 77.2404375076706 0
507.968336629824 77.2303244874071 0
515.356906223761 77.2066578745648 0
522.852945037152 77.1691210596093 0
530.458016245788 77.1184308990818 0
538.173705762377 77.0562693204837 0
546.001622567259 76.9838042936411 0
553.943399043932 76.9016824325384 0
562.000691319456 76.8106469069846 0
570.175179609817 76.7123229696444 0
578.468568570305 76.6095634150862 0
586.88258765099 76.5063679456212 0
595.418991457374 76.4066477327393 0
604.079560116284 76.3136120125005 0
612.866099647087 76.2304893206398 0
621.780442338308 76.1604292762943 0
630.82444712972 76.1064525062325 0
640 76.0705041194933 0
649.309014360015 76.0518305850437 0
658.753431451835 76.0478628527979 0
668.335220753545 76.0554440175038 0
678.056380389949 76.0704856797691 0
687.918937549246 76.0880447996768 0
697.924948905765 76.1024328003815 0
708.076501048853 76.1087175469501 0
718.375710917999 76.1046906541386 0
728.824726244283 76.0888182591982 0
739.425725998255 76.0572464063837 0
750.180920844321 76.007754856455 0
761.092553601741 75.9430686752406 0
772.162899712334 75.866554725468 0
783.39426771498 75.778709692185 0
794.78899972703 75.6793675103205 0
806.349471932719 75.5712235151595 0
818.078095078676 75.4590835473687 0
829.977314976646 75.3486838228516 0
842.049613013528 75.2466028531582 0
854.297506668822 75.1598257084067 0
866.723550039611 75.0934332538671 0
879.330334373177 75.0476704177436 0
892.12048860736 75.0205260028288 0
905.096679918781 75.0101610796802 0
918.26161427904 75.0130232835736 0
931.618037019 75.0234632355856 0
945.16873340128 75.0351943523673 0
958.916529201076 75.042480106701 0
972.864291295434 75.040895097225 0
987.014928261082 75.0276332228787 0
1001.37139098098 75.0018682384841 0
1015.93667325965 74.9651005784422 0
1030.71381244752 74.9205522612587 0
1045.7058900743 74.8721110763862 0
1060.91603249158 74.8244394967945 0
1076.34741152475 74.782367643523 0
1092.00324513452 74.7495445453749 0
1107.88679808786 74.7275022740763 0
1124.00138263891 74.7134940239262 0
1140.35035921963 74.7013708666392 0
1156.93713714061 74.6852019671234 0
1173.76517530198 74.6608213654747 0
1190.83798291475 74.6261959906306 0
1208.15912023257 74.5803806705506 0
1225.73219929417 74.5253698818595 0
1243.56088467662 74.467333348153 0
1261.64889425944 74.4131885851497 0
1280 74.3692921606737 0
1298.61802872003 74.3405500069321 0
1317.50686290367 74.3310249314073 0
1336.67044150709 74.3424014774607 0
1356.1127607799 74.3688193275619 0
1375.83787509849 74.4009435060674 0
1395.84989781153 74.4305203860741 0
1416.15300209771 74.4508373541646 0
1436.751421836 74.4597289730476 0
1457.64945248857 74.4585480742357 0
1478.85145199651 74.4502940820317 0
1500.36184168864 74.4401262671581 0
1522.18510720348 74.4331793733844 0
1544.32579942467 74.430967868838 0
1566.78853542996 74.4281905235526 0
1589.57799945406 74.4114239171956 0
1612.69894386544 74.3629530670944 0
1636.15619015735 74.2619417676027 0
1659.95462995329 74.0854982589967 0
1684.09922602706 73.8166755760639 0
1708.59501333764 73.4506014640834 0
1733.44710007922 72.9965016259639 0
1758.66066874635 72.4814122454031 0
1784.24097721472 71.9550143089054 0
1810.19335983756 71.482652758374 0
1836.52322855808 71.128577642251 0
1863.236074038 70.9337088021997 0
1890.33746680256 70.8895538279032 0
1917.83305840215 70.9428064120629 0
1945.72858259087 71.0293260074026 0
1974.02985652216 71.1012084717329 0
2002.74278196195 71.1413017161134 0
2031.87334651929 71.1621740124927 0
2061.42762489505 71.1899596878368 0
2091.41178014861 71.2463518083073 0
2121.83206498315 71.3324823497208 0
2152.69482304951 71.4276888977699 0
2184.00649026904 71.5047450899492 0
2215.77359617573 71.545557885976 0
2248.00276527782 71.5503794313395 0
2280.70071843927 71.5391957624672 0
2313.87427428122 71.5422663028436 0
2347.53035060396 71.5820859627361 0
2381.6759658295 71.6601155083843 0
2416.31824046513 71.7574346076028 0
2451.46439858835 71.8510198949004 0
2487.12176935323 71.9332611804476 0
2523.29778851888 72.0146211661477 0
2560 72.112840908342 0
2597.23605744006 72.236192451681 0
2635.01372580734 72.3700675397304 0
2673.34088301418 72.480714146115 0
2712.2255215598 72.5411723368111 0
2751.67575019698 72.5508381742355 0
2791.69979562306 72.5286890267295 0
2832.30600419541 72.500098418422 0
2873.50284367199 72.4783003863981 0
2915.29890497713 72.4530340481684 0
2957.70290399302 72.4042183117301 0
3000.72368337728 72.3287238711928 0
3044.37021440697 72.2554929066916 0
3088.65159884934 72.2241567862384 0
3133.57707085992 72.2439993420172 0
3179.15599890812 72.2811998091209 0
3225.39788773088 72.2980598703871 0
3272.3123803147 72.2961358362025 0
3319.90925990658 72.3065938724243 0
3368.19845205411 72.3383440501625 0
3417.19002667529 72.3560973142745 0
3466.89420015845 72.3249605265704 0
3517.32133749271 72.2600017548026 0
3568.48195442944 72.2099206750547 0
3620.38671967512 72.1911887051321 0
3673.04645711616 72.170103859751 0
3726.472148076 72.1227982322087 0
3780.67493360512 72.0727637190283 0
3835.66611680431 72.048865701551 0
3891.45716518173 72.0311433305623 0
3948.05971304433 71.9751231542369 0
4005.4855639239 71.8771539490408 0
4063.74669303859 71.7763049463966 0
4122.85524979009 71.6896635452899 0
4182.82356029722 71.5881197449121 0
4243.6641299663 71.4626764646588 0
4305.38964609902 71.3565814859011 0
4368.01298053808 71.2828378463952 0
4431.54719235145 71.1823761891725 0
4496.00553055565 71.0212889253112 0
4561.40143687854 70.8348173223094 0
4627.74854856243 70.6347966014254 0
4695.06070120792 70.3964415977762 0
4763.35193165899 70.1634207671271 0
4832.63648093027 70.0207131788667 0
4902.9287971767 69.9825031740913 0
4974.24353870646 70.0311068356224 0
5046.59557703776 70.1517600284236 0
5120 70.279334821147 0
5194.47211488012 70.3597432045808 0
5270.02745161468 70.4161548800006 0
5346.68176602836 70.4612787487905 0
5424.45104311959 70.4561758827586 0
5503.35150039396 70.4046252373996 0
5583.39959124612 70.3458181517921 0
5664.61200839083 70.2816022504937 0
5747.00568734399 70.2349075926344 0
5830.59780995426 70.2456408247163 0
5915.40580798604 70.300360099422 0
6001.44736675456 70.3809777803304 0
6088.74042881393 70.4680234793904 0
6177.30319769867 70.5357820326476 0
6267.15414171983 70.5905743893012 0
6358.31199781624 70.6324122622034 0
6450.79577546175 70.6549224666232 0
6544.6247606294 70.6816396282907 0
6639.81851981317 70.732661082715 0
6736.39690410823 70.816188486843 0
6834.38005335057 70.9386218178626 0
6933.78840031689 71.0810045377607 0
7034.64267498542 71.2160306045131 0
7136.96390885887 71.3122000869287 0
7240.77343935025 71.3443818929312 0
7346.09291423232 71.3190834626109 0
7452.944296152 71.2640683453793 0
7561.34986721024 71.2191062128245 0
7671.33223360861 71.1926492379714 0
7782.91433036346 71.152975331332 0
7896.11942608866 71.0767534576532 0
8010.97112784781 70.986794303085 0
8127.49338607718 70.9371716761352 0
8245.71049958018 70.9390210117021 0
8365.64712059443 70.9482771226662 0
8487.3282599326 70.9258144875922 0
8610.77929219804 70.8928115451301 0
8736.02596107615 70.8992786351912 0
8863.0943847029 70.9669358076106 0
8992.01106111129 71.072484992272 0
9122.80287375708 71.1616569873169 0
9255.49709712487 71.1821721957998 0
9390.12140241583 71.1180098468335 0
9526.70386331798 70.9917824301733 0
9665.27296186054 70.8405496863564 0
9805.85759435339 70.7232698883189 0
9948.48707741293 70.7044124267024 0
10093.1911540755 70.7474287750592 0
10240 70.7280738805607 0
10388.9442297602 70.6240586342294 0
10540.0549032294 70.570035917466 0
10693.3635320567 70.6530455186092 0
10848.9020862392 70.7720592041592 0
11006.7030007879 70.796614511192 0
11166.7991824922 70.7123535859838 0
11329.2240167817 70.5915538574526 0
11494.011374688 70.5255859067753 0
11661.1956199085 70.53729216267 0
11830.8116159721 70.5316118276246 0
12002.8947335091 70.4434599599819 0
12177.4808576279 70.3972052540762 0
12354.6063953973 70.555371640177 0
12534.3082834397 70.7910534640244 0
12716.6239956325 70.8203105730224 0
12901.5915509235 70.6665049335694 0
13089.2495212588 70.6636297003354 0
13279.6370396263 70.8540924574747 0
13472.7938082165 70.938764764124 0
13668.7601067011 70.9059262894704 0
13867.5768006338 71.0507335867183 0
14069.2853499708 71.4617216038373 0
14273.9278177177 71.8857224341033 0
14481.5468787005 72.093215767324 0
14692.1858284646 72.1644374654759 0
14905.888592304 72.3305909057632 0
15122.6997344205 72.5565152815378 0
15342.6644672172 72.671208728416 0
15565.8286607269 72.7198333885174 0
15792.2388521773 72.7529384027615 0
16021.9422556956 72.6580018528791 0
16254.9867721544 72.3859854390125 0
16491.4209991604 72.0636156140799 0
16731.2942411889 71.8130676910859 0
16974.6565198652 71.5786120473128 0
