Param_Coord_x1 = 1
Param_Coord_x2 = 100
Param_Coord_x3 = 0
Param_Coord_Type = Spherical
Param_Coord_AngularFormat = degree
Param_Coord_Front = '0,0'
Param_Coord_Top = '90,0'
Data_Domain=Frequency
Data_Phase_AngularFormat=degree
Data_Format = LeveldB_Phase
Data_LevelType=SoundPressure

Curve=[
2.0507813e+01 5.0833139e+01 -1.5971504e+01
2.1972656e+01 5.3033937e+01 -2.5169910e+01
2.3437500e+01 5.4496512e+01 -2.8434462e+01
2.4902344e+01 5.4207056e+01 -2.5836369e+01
2.6367188e+01 5.8083309e+01 -3.2445813e+01
2.7832031e+01 5.9797856e+01 -4.0434268e+01
2.9296875e+01 6.1577057e+01 -4.8574642e+01
3.0761719e+01 6.3233831e+01 -5.7238595e+01
3.2226563e+01 6.4753392e+01 -6.5758247e+01
3.3691406e+01 6.6138835e+01 -7.4704776e+01
3.5156250e+01 6.7530081e+01 -8.2713540e+01
3.6621094e+01 6.8672691e+01 -9.0944110e+01
3.8085938e+01 6.9885213e+01 -9.8632265e+01
3.9550781e+01 7.0916233e+01 -1.0691352e+02
4.1015625e+01 7.1820992e+01 -1.1492346e+02
4.2480469e+01 7.2597882e+01 -1.2214373e+02
4.3945313e+01 7.3309354e+01 -1.2906296e+02
4.5410156e+01 7.3885957e+01 -1.3560403e+02
4.6875000e+01 7.4404785e+01 -1.4135047e+02
4.8339844e+01 7.4881128e+01 -1.4650048e+02
5.1269531e+01 7.5785224e+01 -1.5600246e+02
5.2734375e+01 7.6227874e+01 -1.6042231e+02
5.4199219e+01 7.6637730e+01 -1.6447178e+02
5.5664063e+01 7.6949370e+01 -1.6840515e+02
5.8593750e+01 7.7622851e+01 -1.7552238e+02
6.0058594e+01 7.7922411e+01 -1.7884366e+02
6.2988281e+01 7.8517441e+01 1.7521477e+02
6.4453125e+01 7.8827517e+01 1.7271622e+02
6.7382813e+01 7.9467412e+01 1.6763076e+02
6.8847656e+01 7.9784355e+01 1.6476019e+02
7.1777344e+01 8.0466427e+01 1.5949423e+02
7.4707031e+01 8.1070568e+01 1.5493815e+02
7.7636719e+01 8.1545375e+01 1.5010998e+02
7.9101563e+01 8.1826268e+01 1.4729761e+02
8.2031250e+01 8.2450688e+01 1.4229099e+02
8.4960938e+01 8.2949045e+01 1.3801836e+02
8.7890625e+01 8.3349433e+01 1.3303395e+02
9.0820313e+01 8.3889519e+01 1.2789029e+02
9.5214844e+01 8.4517488e+01 1.2124093e+02
9.8144531e+01 8.4846715e+01 1.1608649e+02
1.0107422e+02 8.5240152e+01 1.1089120e+02
1.0546875e+02 8.5678715e+01 1.0377550e+02
1.0839844e+02 8.5895718e+01 9.8689539e+01
1.1279297e+02 8.6263537e+01 9.1129687e+01
1.1718750e+02 8.6432350e+01 8.4053201e+01
1.2011719e+02 8.6475775e+01 7.9398780e+01
1.2451172e+02 8.6518754e+01 7.3092557e+01
1.2890625e+02 8.6489986e+01 6.7307417e+01
1.3330078e+02 8.6442780e+01 6.2072863e+01
1.3916016e+02 8.6387859e+01 5.5450658e+01
1.4355469e+02 8.6254328e+01 5.0567512e+01
1.4794922e+02 8.6061729e+01 4.6256241e+01
1.5380859e+02 8.5809453e+01 4.1580847e+01
1.5966797e+02 8.5627398e+01 3.7120404e+01
1.6552734e+02 8.5342630e+01 3.3143460e+01
1.7138672e+02 8.5243893e+01 2.9964101e+01
1.7724609e+02 8.5029906e+01 2.5570346e+01
1.8310547e+02 8.4685704e+01 2.2402041e+01
1.8896484e+02 8.4436085e+01 2.0621268e+01
1.9628906e+02 8.4399596e+01 1.7182959e+01
2.0361328e+02 8.4086642e+01 1.2988632e+01
2.1093750e+02 8.3720718e+01 1.0167554e+01
2.1826172e+02 8.3386698e+01 7.8037581e+00
2.2558594e+02 8.2987328e+01 6.4105230e+00
2.3291016e+02 8.3019557e+01 5.6867982e+00
2.4169922e+02 8.2770971e+01 1.9726247e+00
2.5048828e+02 8.2515370e+01 -3.3736523e-01
2.5927734e+02 8.2285431e+01 -2.2833988e+00
2.6806641e+02 8.2081858e+01 -5.2744047e+00
2.7685547e+02 8.1615629e+01 -7.7756771e+00
2.8710938e+02 8.1133346e+01 -7.6776346e+00
2.9736328e+02 8.1104511e+01 -8.5194668e+00
3.0761719e+02 8.0968967e+01 -1.0563472e+01
3.1933594e+02 8.0733719e+01 -1.4167023e+01
3.2958984e+02 8.0185616e+01 -1.4963150e+01
3.4130859e+02 8.0217387e+01 -1.5741587e+01
3.5302734e+02 7.9963708e+01 -1.9342590e+01
3.6621094e+02 7.9279283e+01 -2.1681469e+01
3.7939453e+02 7.8935161e+01 -2.0507505e+01
3.9257813e+02 7.8742763e+01 -2.1516627e+01
4.0576172e+02 7.8841677e+01 -2.4123108e+01
4.2041016e+02 7.7931680e+01 -2.9383612e+01
4.3505859e+02 7.7219242e+01 -2.8105138e+01
4.5117188e+02 7.6734521e+01 -3.0979917e+01
4.6582031e+02 7.5752850e+01 -2.8909581e+01
4.8339844e+02 7.5595745e+01 -3.2450945e+01
4.9951172e+02 7.4760169e+01 -3.2079740e+01
5.1708984e+02 7.3990431e+01 -3.5446049e+01
5.3613281e+02 7.2363936e+01 -3.0240462e+01
5.5517578e+02 7.2111323e+01 -3.1792794e+01
5.7421875e+02 7.1027338e+01 -3.0088145e+01
5.9472656e+02 6.9881059e+01 -2.4495441e+01
6.1523438e+02 6.9349557e+01 -1.9475831e+01
6.3720703e+02 6.8056434e+01 -2.6299318e+01
6.5917969e+02 6.5234809e+01 -9.5293905e+00
6.8261719e+02 6.4374776e+01 5.3293224e+00
7.0751953e+02 6.5475381e+01 2.0436871e+01
7.3242188e+02 6.4011339e+01 2.6199090e+01
7.5732422e+02 6.6463891e+01 4.8806465e+01
7.8515625e+02 6.7021976e+01 5.3088430e+01
8.1152344e+02 6.9062576e+01 6.0310283e+01
8.4082031e+02 7.0336158e+01 6.6516528e+01
8.7011719e+02 7.2165759e+01 6.1284437e+01
9.0087891e+02 7.2673456e+01 5.3770107e+01
9.3310547e+02 7.1763382e+01 5.6620951e+01
9.6533203e+02 7.1708326e+01 5.6977889e+01
1.0004883e+03 7.2597786e+01 6.4718156e+01
1.0356445e+03 7.3980339e+01 6.1243308e+01
1.0722656e+03 7.4386310e+01 5.5777830e+01
1.1088867e+03 7.3651916e+01 5.5304368e+01
1.1484375e+03 7.2675191e+01 6.0463457e+01
1.1894531e+03 7.4424489e+01 6.8155702e+01
1.2304688e+03 7.5115024e+01 6.7011607e+01
1.2744141e+03 7.6430652e+01 6.2168799e+01
1.3198242e+03 7.6083533e+01 6.5401508e+01
1.3666992e+03 7.7451157e+01 5.0444710e+01
1.4135742e+03 7.4844655e+01 4.2494385e+01
1.4633789e+03 7.4733830e+01 6.0354795e+01
1.5161133e+03 7.6321331e+01 5.2537169e+01
1.5688477e+03 7.5488199e+01 4.0937854e+01
1.6245117e+03 7.3240112e+01 3.6024051e+01
1.6816406e+03 7.3397096e+01 5.6379188e+01
1.7416992e+03 7.3778554e+01 5.9458779e+01
1.8032227e+03 7.4804107e+01 5.2371389e+01
1.8662109e+03 7.3569013e+01 3.0530437e+01
1.9321289e+03 7.2227518e+01 2.4500684e+01
1.9995117e+03 6.4198250e+01 2.7019161e+01
2.0698242e+03 6.6878036e+01 7.6083508e+01
2.1430664e+03 6.7832560e+01 6.3187958e+01
2.2192383e+03 6.5211180e+01 6.0945034e+01
2.2968750e+03 5.8444985e+01 9.3608590e+01
2.3789063e+03 6.5896823e+01 1.3650809e+02
2.4624023e+03 6.8967832e+01 1.4219393e+02
2.5488281e+03 7.2094566e+01 1.2411215e+02
2.6396484e+03 7.0522319e+01 1.1588074e+02
2.7319336e+03 7.2306958e+01 1.2824501e+02
2.8286133e+03 7.2187203e+01 1.0346470e+02
2.9282227e+03 7.4310797e+01 9.8495377e+01
3.0307617e+03 6.9520353e+01 1.1606455e+02
3.1376953e+03 6.9578980e+01 8.4674735e+01
3.2490234e+03 7.2862814e+01 1.1129939e+02
3.3632813e+03 7.0554087e+01 7.2062213e+01
3.4819336e+03 6.9878619e+01 6.6318562e+01
3.6049805e+03 6.8794888e+01 7.7844211e+01
3.7324219e+03 6.9928618e+01 3.0598011e+01
3.8642578e+03 6.5513207e+01 3.5600634e+01
4.0004883e+03 6.8104402e+01 1.9351424e+01
4.1411133e+03 6.5170765e+01 -1.1707997e+01
4.2875977e+03 6.5400762e+01 -6.3892665e+00
4.4384766e+03 6.2493202e+01 -6.3840921e+00
4.5952148e+03 6.2726586e+01 -4.4298242e+00
4.7563477e+03 6.4456945e+01 7.2245449e+00
4.9248047e+03 6.6663481e+01 -3.2422615e+00
5.0976563e+03 6.7107992e+01 1.0190897e-01
5.2778320e+03 6.7189405e+01 -1.5370531e+01
5.4638672e+03 6.7993270e+01 -6.5882926e+00
5.6572266e+03 6.6510567e+01 -2.6287843e+01
5.8564453e+03 6.7310345e+01 -1.3501212e+01
6.0629883e+03 6.7428966e+01 -1.0147313e+01
6.2768555e+03 6.9998148e+01 -3.6787797e+01
6.4980469e+03 6.9837188e+01 -4.5643945e+01
6.7265625e+03 6.5368868e+01 -6.7603331e+01
6.9638672e+03 6.3680318e+01 -4.5017484e+01
7.2099609e+03 6.6050400e+01 -4.4579237e+01
7.4648438e+03 6.5459880e+01 -5.4894224e+01
7.7270508e+03 6.5174542e+01 -6.2495647e+01
7.9995117e+03 6.7329846e+01 -7.1491074e+01
8.2822266e+03 6.4862082e+01 -9.7713562e+01
8.5737305e+03 6.1105611e+01 -7.7951743e+01
8.8769531e+03 6.2702539e+01 -6.1340188e+01
9.1889648e+03 6.5299469e+01 -8.1016770e+01
9.5141602e+03 6.5777709e+01 -9.9646363e+01
9.8496094e+03 6.1726760e+01 -1.1698368e+02
1.0196777e+04 6.0595129e+01 -1.2995503e+02
1.0555664e+04 5.9144998e+01 -1.3505676e+02
1.0927734e+04 5.6697007e+01 -1.3819126e+02
1.1312988e+04 5.4414813e+01 -1.3377367e+02
1.1712891e+04 5.4086436e+01 -1.2768459e+02
1.2125977e+04 5.4211751e+01 -1.4340616e+02
1.2553711e+04 5.0417591e+01 -1.5693861e+02
1.2996094e+04 4.9956121e+01 -1.4756833e+02
1.3454590e+04 4.9389245e+01 -1.6556309e+02
1.3929199e+04 4.5317862e+01 -1.6668930e+02
1.4419922e+04 4.1001532e+01 -1.6327408e+02
1.4928223e+04 3.7427678e+01 -1.4303447e+02
1.5455566e+04 4.1553011e+01 -1.1628765e+02
1.6000488e+04 4.1000459e+01 -1.3438427e+02
1.6564453e+04 4.2953820e+01 -1.4220873e+02
1.7148926e+04 4.2922644e+01 -1.7819320e+02
1.7752441e+04 3.7469496e+01 1.3281914e+02
1.8379395e+04 3.5467048e+01 7.6304080e+01
1.9026855e+04 4.2839468e+01 2.1276488e+01
1.9697754e+04 3.8203868e+01 -2.8115555e+01
1.9999512e+04 4.6043069e+01 1.0391333e+02
];
