Param_Coord_x1 = 1
Param_Coord_x2 = 290
Param_Coord_x3 = 90
Param_Coord_Type = Spherical
Param_Coord_AngularFormat = degree
Param_Coord_Front = '0,0'
Param_Coord_Top = '90,0'
Data_Domain=Frequency
Data_Phase_AngularFormat=degree
Data_Format = LeveldB_Phase
Data_LevelType=SoundPressure

Curve=[
2.0507813e+01 4.8113099e+01 -2.4229600e+01
2.1972656e+01 5.1178064e+01 -2.8095233e+01
2.3437500e+01 5.2597760e+01 -3.4797205e+01
2.4902344e+01 5.2951873e+01 -3.1185010e+01
2.6367188e+01 5.7045462e+01 -3.8938071e+01
2.7832031e+01 5.8955446e+01 -4.6644961e+01
2.9296875e+01 6.0927870e+01 -5.5519063e+01
3.0761719e+01 6.2663081e+01 -6.4148685e+01
3.2226563e+01 6.4185769e+01 -7.2270853e+01
3.3691406e+01 6.5692484e+01 -8.0882290e+01
3.5156250e+01 6.7145388e+01 -8.8586158e+01
3.6621094e+01 6.8375771e+01 -9.6484816e+01
3.8085938e+01 6.9599751e+01 -1.0371466e+02
3.9550781e+01 7.0735085e+01 -1.1166722e+02
4.1015625e+01 7.1661530e+01 -1.1936629e+02
4.2480469e+01 7.2486723e+01 -1.2633666e+02
4.3945313e+01 7.3216334e+01 -1.3299368e+02
4.5410156e+01 7.3825554e+01 -1.3940648e+02
4.6875000e+01 7.4361102e+01 -1.4472702e+02
4.8339844e+01 7.4870115e+01 -1.4973201e+02
5.1269531e+01 7.5811195e+01 -1.5889321e+02
5.2734375e+01 7.6267397e+01 -1.6311756e+02
5.4199219e+01 7.6688756e+01 -1.6698642e+02
5.5664063e+01 7.7002778e+01 -1.7083925e+02
5.8593750e+01 7.7714292e+01 -1.7753449e+02
6.0058594e+01 7.8043776e+01 1.7917072e+02
6.2988281e+01 7.8657680e+01 1.7341873e+02
6.4453125e+01 7.8979948e+01 1.7097680e+02
6.7382813e+01 7.9627909e+01 1.6608258e+02
6.8847656e+01 7.9951897e+01 1.6333931e+02
7.1777344e+01 8.0655754e+01 1.5830824e+02
7.4707031e+01 8.1279438e+01 1.5393411e+02
7.7636719e+01 8.1772319e+01 1.4926802e+02
7.9101563e+01 8.2064330e+01 1.4655635e+02
8.2031250e+01 8.2706483e+01 1.4174160e+02
8.4960938e+01 8.3221887e+01 1.3764532e+02
8.7890625e+01 8.3651048e+01 1.3281314e+02
9.0820313e+01 8.4207273e+01 1.2770483e+02
9.5214844e+01 8.4864401e+01 1.2115152e+02
9.8144531e+01 8.5199780e+01 1.1609503e+02
1.0107422e+02 8.5597965e+01 1.1107106e+02
1.0546875e+02 8.6051932e+01 1.0421347e+02
1.0839844e+02 8.6282849e+01 9.9336761e+01
1.1279297e+02 8.6708265e+01 9.2141033e+01
1.1718750e+02 8.6895842e+01 8.5155076e+01
1.2011719e+02 8.6979039e+01 8.0697377e+01
1.2451172e+02 8.7057578e+01 7.4495915e+01
1.2890625e+02 8.7077789e+01 6.8878310e+01
1.3330078e+02 8.7083252e+01 6.3692955e+01
1.3916016e+02 8.7052792e+01 5.6828708e+01
1.4355469e+02 8.6919354e+01 5.2124893e+01
1.4794922e+02 8.6747061e+01 4.8077934e+01
1.5380859e+02 8.6573407e+01 4.3809426e+01
1.5966797e+02 8.6458090e+01 3.9249890e+01
1.6552734e+02 8.6224467e+01 3.5376213e+01
1.7138672e+02 8.6155909e+01 3.2042741e+01
1.7724609e+02 8.5943240e+01 2.7854662e+01
1.8310547e+02 8.5627592e+01 2.5050375e+01
1.8896484e+02 8.5434286e+01 2.3552988e+01
1.9628906e+02 8.5453038e+01 2.0417918e+01
2.0361328e+02 8.5188598e+01 1.6686955e+01
2.1093750e+02 8.4906243e+01 1.4455807e+01
2.1826172e+02 8.4703058e+01 1.2627537e+01
2.2558594e+02 8.4462910e+01 1.1830385e+01
2.3291016e+02 8.4688240e+01 1.0478871e+01
2.4169922e+02 8.4454325e+01 6.8852604e+00
2.5048828e+02 8.4364302e+01 5.3465744e+00
2.5927734e+02 8.4358072e+01 2.8398510e+00
2.6806641e+02 8.4143816e+01 -7.1445366e-01
2.7685547e+02 8.3652048e+01 -1.9804881e+00
2.8710938e+02 8.3493105e+01 -4.0739510e-01
2.9736328e+02 8.3843231e+01 -1.7135363e+00
3.0761719e+02 8.3735876e+01 -4.1204849e+00
3.1933594e+02 8.3662189e+01 -7.0177460e+00
3.2958984e+02 8.3608242e+01 -6.0376230e+00
3.4130859e+02 8.3976984e+01 -9.4880481e+00
3.5302734e+02 8.3695936e+01 -1.3096493e+01
3.6621094e+02 8.3339984e+01 -1.3714196e+01
3.7939453e+02 8.3448507e+01 -1.3131441e+01
3.9257813e+02 8.3614199e+01 -1.3563849e+01
4.0576172e+02 8.4010225e+01 -1.7722078e+01
4.2041016e+02 8.3422328e+01 -2.0612422e+01
4.3505859e+02 8.3533569e+01 -1.9768552e+01
4.5117188e+02 8.3316940e+01 -2.3453662e+01
4.6582031e+02 8.3471364e+01 -1.9823471e+01
4.8339844e+02 8.3594133e+01 -2.6593529e+01
4.9951172e+02 8.3765405e+01 -2.4672703e+01
5.1708984e+02 8.4076209e+01 -2.8664996e+01
5.3613281e+02 8.4203086e+01 -3.0981730e+01
5.5517578e+02 8.4398160e+01 -3.5931716e+01
5.7421875e+02 8.4308614e+01 -3.8712414e+01
5.9472656e+02 8.4400941e+01 -4.1122677e+01
6.1523438e+02 8.4604568e+01 -4.6312100e+01
6.3720703e+02 8.4116576e+01 -4.9039329e+01
6.5917969e+02 8.4269211e+01 -5.3577529e+01
6.8261719e+02 8.3997079e+01 -5.4917492e+01
7.0751953e+02 8.4212816e+01 -6.0663581e+01
7.3242188e+02 8.3693526e+01 -6.3150462e+01
7.5732422e+02 8.3797659e+01 -6.9932281e+01
7.8515625e+02 8.3197330e+01 -7.1392916e+01
8.1152344e+02 8.2849240e+01 -7.7012258e+01
8.4082031e+02 8.2944370e+01 -8.2920061e+01
8.7011719e+02 8.1020743e+01 -8.3968446e+01
9.0087891e+02 8.0449553e+01 -8.3312398e+01
9.3310547e+02 8.1237998e+01 -7.6054080e+01
9.6533203e+02 8.0935119e+01 -8.0153100e+01
1.0004883e+03 8.1904097e+01 -8.6077067e+01
1.0356445e+03 8.1405325e+01 -9.5197292e+01
1.0722656e+03 8.0672870e+01 -9.4319483e+01
1.1088867e+03 8.0420997e+01 -9.5327278e+01
1.1484375e+03 8.0374945e+01 -8.9180955e+01
1.1894531e+03 8.1421187e+01 -9.2101406e+01
1.2304688e+03 8.2044695e+01 -9.6966122e+01
1.2744141e+03 8.2543099e+01 -1.0570062e+02
1.3198242e+03 8.2578678e+01 -1.1434125e+02
1.3666992e+03 8.2076287e+01 -1.2496549e+02
1.4135742e+03 8.1036884e+01 -1.2718626e+02
1.4633789e+03 8.0975934e+01 -1.3204532e+02
1.5161133e+03 8.0432190e+01 -1.3357498e+02
1.5688477e+03 8.0657515e+01 -1.4060924e+02
1.6245117e+03 8.0417575e+01 -1.4232926e+02
1.6816406e+03 8.0522064e+01 -1.4641142e+02
1.7416992e+03 8.1288630e+01 -1.5619784e+02
1.8032227e+03 8.0477117e+01 -1.6697967e+02
1.8662109e+03 7.9352697e+01 -1.7680311e+02
1.9321289e+03 7.9150058e+01 -1.7457472e+02
1.9995117e+03 7.9083890e+01 -1.7861910e+02
2.0698242e+03 7.8736783e+01 1.7200353e+02
2.1430664e+03 7.7793312e+01 1.6564076e+02
2.2192383e+03 7.7513396e+01 1.6844080e+02
2.2968750e+03 7.7604634e+01 1.6420198e+02
2.3789063e+03 7.7267094e+01 1.5985776e+02
2.4624023e+03 7.7609842e+01 1.5873197e+02
2.5488281e+03 7.8106223e+01 1.5175561e+02
2.6396484e+03 7.7499665e+01 1.4430134e+02
2.7319336e+03 7.7930874e+01 1.4782915e+02
2.8286133e+03 7.9019660e+01 1.3571353e+02
2.9282227e+03 7.8820957e+01 1.2852286e+02
3.0307617e+03 7.8769244e+01 1.2306799e+02
3.1376953e+03 7.9029430e+01 1.1435439e+02
3.2490234e+03 7.9170982e+01 1.0718349e+02
3.3632813e+03 7.9117154e+01 9.7282480e+01
3.4819336e+03 7.8754467e+01 9.1379551e+01
3.6049805e+03 7.8929704e+01 8.5738837e+01
3.7324219e+03 7.8910188e+01 7.7067396e+01
3.8642578e+03 7.8398377e+01 7.3505246e+01
4.0004883e+03 7.8988368e+01 6.5709421e+01
4.1411133e+03 7.8580252e+01 6.1788434e+01
4.2875977e+03 7.8744370e+01 5.1746988e+01
4.4384766e+03 7.8638844e+01 4.9331432e+01
4.5952148e+03 7.8092981e+01 3.8812407e+01
4.7563477e+03 7.7988587e+01 3.7011256e+01
4.9248047e+03 7.7435790e+01 3.1747622e+01
5.0976563e+03 7.7617026e+01 2.7360382e+01
5.2778320e+03 7.7579718e+01 2.5078163e+01
5.4638672e+03 7.7091170e+01 1.5388249e+01
5.6572266e+03 7.6744376e+01 1.4435966e+01
5.8564453e+03 7.6683757e+01 1.2467783e+01
6.0629883e+03 7.6955615e+01 1.1652791e+01
6.2768555e+03 7.7594757e+01 6.9628494e+00
6.4980469e+03 7.9296056e+01 -4.4938241e+00
6.7265625e+03 7.8223842e+01 -1.7305996e+01
6.9638672e+03 7.6205160e+01 -2.2252387e+01
7.2099609e+03 7.5895066e+01 -1.8200156e+01
7.4648438e+03 7.5583438e+01 -2.3484605e+01
7.7270508e+03 7.6132884e+01 -3.1332458e+01
7.9995117e+03 7.6533121e+01 -3.2953233e+01
8.2822266e+03 7.6874840e+01 -4.4314658e+01
8.5737305e+03 7.6766665e+01 -5.5639619e+01
8.8769531e+03 7.5309328e+01 -6.0276396e+01
9.1889648e+03 7.4208582e+01 -6.0836952e+01
9.5141602e+03 7.3804340e+01 -6.1032833e+01
9.8496094e+03 7.3573362e+01 -6.3115736e+01
1.0196777e+04 7.3426357e+01 -6.6558708e+01
1.0555664e+04 7.2823969e+01 -7.2167890e+01
1.0927734e+04 7.1949076e+01 -7.5551186e+01
1.1312988e+04 7.0676987e+01 -7.5290199e+01
1.1712891e+04 6.9683359e+01 -7.0723784e+01
1.2125977e+04 7.0260059e+01 -6.3816996e+01
1.2553711e+04 7.1988634e+01 -7.0441544e+01
1.2996094e+04 7.2327013e+01 -8.0950855e+01
1.3454590e+04 7.2466440e+01 -8.9997529e+01
1.3929199e+04 7.1631994e+01 -1.0023857e+02
1.4419922e+04 7.0487004e+01 -1.0559165e+02
1.4928223e+04 6.9837593e+01 -1.0837905e+02
1.5455566e+04 6.9912118e+01 -1.0904509e+02
1.6000488e+04 7.0823745e+01 -1.1927899e+02
1.6564453e+04 7.0591043e+01 -1.3129292e+02
1.7148926e+04 7.0293449e+01 -1.3925351e+02
1.7752441e+04 7.0162403e+01 -1.4939235e+02
1.8379395e+04 6.9178029e+01 -1.6135597e+02
1.9026855e+04 6.7818507e+01 -1.6663140e+02
1.9697754e+04 6.5822804e+01 -1.6900344e+02
1.9999512e+04 6.5036002e+01 -1.6645055e+02
];
