* Frequency Reference angle 0
5 39.2567012773375 0
5.07272667468762 38.8211977286057 0
5.14651118321746 38.1945053087149 0
5.22136891213707 37.6490732681962 0
5.29731547179648 37.1484834512308 0
5.37436669960348 36.6324315106975 0
5.45253866332629 36.0718957338341 0
5.53184766444417 35.4080982621413 0
5.61231024154687 34.6276710063376 0
5.69394317378346 33.782374042271 0
5.77676348436136 32.902890864624 0
5.86078844409626 31.9638590680147 0
5.9460355750136 30.9293111862418 0
6.03252265400261 29.8209633887325 0
6.12026771652328 28.6769989997552 0
6.20928906036742 27.6022227185262 0
6.29960524947437 26.8231926783811 0
6.39123511780215 26.366941686935 0
6.48419777325505 26.1143187140736 0
6.57851260166819 26.2124461731224 0
6.67419927085017 26.8053331342442 0
6.77127773468446 27.5817159885272 0
6.86976823729045 28.2876451260847 0
6.969691317245 28.8355873834056 0
7.07106781186548 29.2153826828652 0
7.173918861555 29.5341419841618 0
7.27826591421094 29.7538925581927 0
7.3841307296975 29.707081559368 0
7.49153538438341 29.4179410691763 0
7.60050227574557 29.0240557860825 0
7.7110541270397 28.4298023633852 0
7.82321399203887 27.4717708413604 0
7.937005259841 26.2909258850557 0
8.05245165974627 24.9799206150542 0
8.1695772662055 23.4140812841848 0
8.28840650384044 21.8019007832868 0
8.40896415253714 21.3041433905851 0
8.53127535261343 22.7786449271415 0
8.65536561006143 24.6573744887564 0
8.7812608018665 26.2400641221863 0
8.90898718140339 27.8307604246116 0
9.03857138391101 29.6152583679683 0
9.17004043204671 31.1897250319171 0
9.30342174152147 32.3448282253498 0
9.43874312681693 33.3009055018398 0
9.57603280698574 34.0971547388108 0
9.71531941153606 34.6874527907734 0
9.85663198640188 35.0930343447749 0
10 35.2885839272688 0
10.1454533493752 35.3104612588842 0
10.2930223664349 35.1540635756624 0
10.4427378242741 34.7890338857506 0
10.594630943593 34.252760614374 0
10.748733399207 33.5393546185445 0
10.9050773266526 32.709642447036 0
11.0636953288883 31.8752057703697 0
11.2246204830937 31.1509921145126 0
11.3878863475669 30.7200436494528 0
11.5535269687227 30.6643771950914 0
11.7215768881925 30.8810493738232 0
11.8920711500272 31.2302767007803 0
12.0650453080052 31.5446646189413 0
12.2405354330466 31.7091614922518 0
12.4185781207348 31.7542298351066 0
12.5992104989487 31.7011322431287 0
12.7824702356043 31.6614946842326 0
12.9683955465101 31.7798342272737 0
13.1570252033364 32.0905564300276 0
13.3483985417003 32.6153702017351 0
13.5425554693689 33.1948208346586 0
13.7395364745809 33.6496430244662 0
13.93938263449 33.8273247775338 0
14.142135623731 33.5477165743604 0
14.34783772311 32.7188328703229 0
14.5565318284219 31.1894007771321 0
14.768261459395 28.6833754006579 0
14.9830707687668 24.8759979740321 0
15.2010045514911 22.8495602131524 0
15.4221082540794 26.6255722717221 0
15.6464279840777 29.9900042040759 0
15.874010519682 32.2129160178115 0
16.1049033194925 33.4153493168385 0
16.339154532411 33.6491383135875 0
16.5768130076809 33.129907650747 0
16.8179283050743 31.8605586760524 0
17.0625507052269 29.8209919163442 0
17.3107312201229 27.8443592350601 0
17.562521603733 28.1928258412069 0
17.8179743628068 30.4736493579243 0
18.077142767822 32.5591181496409 0
18.3400808640934 33.9447314294525 0
18.6068434830429 34.6707536107293 0
18.8774862536339 35.0405676347901 0
19.1520656139715 35.4740386411397 0
19.4306388230721 36.0717819680865 0
19.7132639728038 36.6259050847865 0
20 37.1104776081928 0
20.2909066987505 37.5582577742957 0
20.5860447328698 37.7543940938974 0
20.8854756485483 37.4323418154496 0
21.1892618871859 36.5274825300451 0
21.4974667984139 35.2550980926846 0
21.8101546533052 34.0398881574094 0
22.1273906577767 33.3852624581499 0
22.4492409661875 33.4811118218024 0
22.7757726951338 33.9427157587257 0
23.1070539374455 34.3062076910017 0
23.443153776385 34.3783762264873 0
23.7841423000544 34.2403939442583 0
24.1300906160104 34.1926923732457 0
24.4810708660931 34.5785937010984 0
24.8371562414697 35.4937135065912 0
25.1984209978975 36.7343093978194 0
25.5649404712086 38.0357755535544 0
25.9367910930202 39.2324269429184 0
26.3140504066728 40.2433716969694 0
26.6967970834007 41.0257955400808 0
27.0851109387379 41.575242193237 0
27.4790729491618 41.9558414876576 0
27.87876526898 42.3138331080467 0
28.2842712474619 42.7915494724532 0
28.69567544622 43.3822061452005 0
29.1130636568437 43.9470665067305 0
29.53652291879 44.3883729198104 0
29.9661415375336 44.7899793847033 0
30.4020091029823 45.3983405933373 0
30.8442165081588 46.3207015784982 0
31.2928559681555 47.322357771975 0
31.748021039364 48.0839057488687 0
32.2098066389851 48.4228370402745 0
32.678309064822 48.385735805171 0
33.1536260153617 48.3219943833782 0
33.6358566101486 48.7140953057356 0
34.1251014104537 49.6376974450678 0
34.6214624402457 50.6662517996109 0
35.125043207466 51.4260230044482 0
35.6359487256136 51.869133395404 0
36.154285535644 52.2162743859627 0
36.6801617281868 52.7162078496689 0
37.2136869660859 53.3819491069684 0
37.7549725072677 54.0506796964572 0
38.3041312279429 54.6635392965119 0
38.8612776461442 55.3319990410533 0
39.4265279456075 56.1202691668586 0
40 56.8922230407112 0
40.581813397501 57.480258551038 0
41.1720894657397 57.9106393461392 0
41.7709512970966 58.3974387586618 0
42.3785237743718 59.0648805374086 0
42.9949335968278 59.8338154005956 0
43.6203093066103 60.6771293241429 0
44.2547813155533 61.6106447204875 0
44.8984819323749 62.4931476284234 0
45.5515453902677 63.2558290708125 0
46.2141078748909 64.1148656674732 0
46.88630755277 65.083812652406 0
47.5682846001088 65.836267871224 0
48.2601812320209 66.5729351294182 0
48.9621417321862 67.8854887943203 0
49.6743124829394 69.3254811416269 0
50.3968419957949 70.0769791352145 0
51.1298809424172 70.1479644766903 0
51.8735821860404 70.2506108256105 0
52.6281008133455 70.7749860255694 0
53.3935941668014 71.3925005564229 0
54.1702218774757 71.9681918681176 0
54.9581458983236 72.5861254585576 0
55.75753053796 73.2225961562498 0
56.5685424949238 73.8640582624348 0
57.39135089244 74.4985534132001 0
58.2261273136875 75.0576324939661 0
59.07304583758 75.5263051733533 0
59.9322830750673 75.9538315661338 0
60.8040182059646 76.3865896771776 0
61.6884330163176 76.8312491157106 0
62.585711936311 77.2557469710446 0
63.496042078728 77.6470323579172 0
64.4196132779702 78.0164803939444 0
65.356618129644 78.3707957930236 0
66.3072520307235 78.7190421649059 0
67.2717132202972 79.0544105804616 0
68.2502028209074 79.3600147357954 0
69.2429248804914 79.6464056739811 0
70.250086414932 79.9291094016613 0
71.2718974512271 80.2070447527243 0
72.3085710712881 80.4799582819807 0
73.3603234563737 80.7487969124235 0
74.4273739321717 81.0134905580844 0
75.5099450145355 81.2768506123403 0
76.6082624558859 81.5418987529853 0
77.7225552922885 81.8077338314988 0
78.853055891215 82.0689666932077 0
80 82.3250140533405 0
81.1636267950019 82.5891199278523 0
82.3441789314794 82.872463649498 0
83.5419025941931 83.1675421828762 0
84.7570475487436 83.4625245670198 0
85.9898671936557 83.7513807954917 0
87.2406186132206 84.03085875164 0
88.5095626311066 84.2944859159605 0
89.7969638647499 84.5427648289134 0
91.1030907805353 84.7819267363556 0
92.4282157497818 85.0137976156585 0
93.7726151055401 85.2421098804473 0
95.1365692002177 85.4761234253157 0
96.5203624640417 85.7236313130151 0
97.9242834643725 85.9744382694563 0
99.3486249658787 86.2099242107171 0
100.79368399159 86.4253604142879 0
102.259761884834 86.6286322657833 0
103.747164372081 86.8253663887933 0
105.256201626691 87.0186425248864 0
106.787188333603 87.2095986530166 0
108.340443754951 87.3977772791991 0
109.916291796647 87.5825308850845 0
111.51506107592 87.7578888234388 0
113.137084989848 87.9121595830005 0
114.78270178488 88.0375182884618 0
116.452254627375 88.1384091842034 0
118.14609167516 88.2204775949189 0
119.864566150135 88.2755172770298 0
121.608036411929 88.301807461178 0
123.376866032635 88.3189211820058 0
125.171423872622 88.3307028567945 0
126.992084157456 88.3280849316928 0
128.83922655594 88.3195566818037 0
130.713236259288 88.3130889426429 0
132.614504061447 88.2924072196754 0
134.543426440594 88.2193235039143 0
136.500405641815 88.0790243672624 0
138.485849760983 87.9221427871871 0
140.500172829864 87.8127337235026 0
142.543794902454 87.7598747381612 0
144.617142142576 87.7368801386212 0
146.720646912747 87.7560372827339 0
148.854747864343 87.7986819077212 0
151.019890029071 87.7311477173711 0
153.216524911772 87.5371509056936 0
155.445110584577 87.3454338807903 0
157.70611178243 87.1932956404095 0
160 87.0370037313349 0
162.327253590004 86.8522784052912 0
164.688357862959 86.6229974701565 0
167.083805188386 86.3492736729414 0
169.514095097487 86.1223346601349 0
171.979734387311 86.0110527776207 0
174.481237226441 85.9518156458272 0
177.019125262213 85.888899217892 0
179.5939277295 85.8293513552678 0
182.206181561071 85.7891387062364 0
184.856431499564 85.7373770693649 0
187.54523021108 85.6258221233569 0
190.273138400435 85.4984752346323 0
193.040724928083 85.4271926462906 0
195.848566928745 85.3676926016059 0
198.697249931757 85.2690141669788 0
201.58736798318 85.1477410841329 0
204.519523769669 85.0407084328977 0
207.494328744162 84.9960523331044 0
210.512403253382 85.0017403389815 0
213.574376667206 84.9830995132467 0
216.680887509903 84.857918590783 0
219.832583593294 84.5934805378606 0
223.03012215184 84.2937947602911 0
226.274169979695 84.1678750236988 0
229.56540356976 84.2764360426478 0
232.90450925475 84.4627861055061 0
236.29218335032 84.5971432091146 0
239.729132300269 84.6592156422208 0
243.216072823858 84.6839853323609 0
246.753732065271 84.6958362872062 0
250.342847745244 84.6768034967787 0
253.984168314912 84.6355027034017 0
257.678453111881 84.6102080642501 0
261.426472518576 84.5858868249556 0
265.229008122894 84.5461628901134 0
269.086852881189 84.515863175866 0
273.00081128363 84.5031878096493 0
276.971699521966 84.5164436484334 0
281.000345659728 84.5450728784795 0
285.087589804909 84.4980484146406 0
289.234284285152 84.333025977365 0
293.441293825495 84.1814564195161 0
297.709495728687 84.1917188138287 0
302.039780058142 84.2966170221245 0
306.433049823544 84.3634166139987 0
310.890221169154 84.407391436579 0
315.41222356486 84.4684811607145 0
320 84.4794063201071 0
324.654507180007 84.417434899314 0
329.376715725918 84.3805108002882 0
334.167610376772 84.4220079769431 0
339.028190194974 84.4884899716084 0
343.959468774623 84.5297488039932 0
348.962474452882 84.5347045474314 0
354.038250524427 84.5041026659941 0
359.187855458999 84.4929407048276 0
364.412363122141 84.5593841180002 0
369.712862999127 84.6375758111861 0
375.090460422161 84.6807001118149 0
380.546276800871 84.7251065392926 0
386.081449856167 84.7775123744947 0
391.69713385749 84.8323689703097 0
397.394499863515 84.9131774897867 0
403.174735966359 85.0000327016674 0
409.039047539338 85.0223558252622 0
414.988657488323 84.9682950987288 0
421.024806506764 84.917557556077 0
427.148753334411 84.9512293576532 0
433.361775019806 85.0108592425818 0
439.665167186588 85.0150412253467 0
446.06024430368 85.0362664325922 0
452.54833995939 85.0974710764823 0
459.13080713952 85.1122579908091 0
465.8090185095 85.1139454652897 0
472.58436670064 85.1814234373124 0
479.458264600538 85.2403034365725 0
486.432145647717 85.2593377984361 0
493.507464130541 85.3056717185046 0
500.685695490488 85.3601422860767 0
507.968336629824 85.399034879385 0
515.356906223761 85.4483934741841 0
522.852945037152 85.4893503341917 0
530.458016245788 85.4839963024683 0
538.173705762377 85.4460839242341 0
546.001622567259 85.4362965031915 0
553.943399043932 85.470608011648 0
562.000691319456 85.517617379415 0
570.175179609817 85.5608787182989 0
578.468568570305 85.6012645764458 0
586.88258765099 85.6441984617727 0
595.418991457374 85.6948530165945 0
604.079560116284 85.7567012061718 0
612.866099647087 85.8294900218323 0
621.780442338308 85.9107461343936 0
630.82444712972 85.9979712197689 0
640 86.0875898962033 0
649.309014360015 86.1749518141241 0
658.753431451835 86.2557393457576 0
668.335220753545 86.3260181248727 0
678.056380389949 86.3802730913245 0
687.918937549246 86.4148828979953 0
697.924948905765 86.4273071446022 0
708.076501048853 86.4159371969133 0
718.375710917999 86.3839015997864 0
728.824726244283 86.3370717000224 0
739.425725998255 86.2785864322158 0
750.180920844321 86.2144324060789 0
761.092553601741 86.158484114659 0
772.162899712334 86.1254422493331 0
783.39426771498 86.127719995437 0
794.78899972703 86.1747371625162 0
806.349471932719 86.2743859527178 0
818.078095078676 86.4334279172038 0
829.977314976646 86.6531772295184 0
842.049613013528 86.9281354008921 0
854.297506668822 87.2467750534925 0
866.723550039611 87.5959100382182 0
879.330334373177 87.9591596872895 0
892.12048860736 88.3171265386696 0
905.096679918781 88.6555289998546 0
918.26161427904 88.9633561786511 0
931.618037019 89.2306374794136 0
945.16873340128 89.4498290277585 0
958.916529201076 89.6160959548054 0
972.864291295434 89.7267803719574 0
987.014928261082 89.7809215511384 0
1001.37139098098 89.7797916559547 0
1015.93667325965 89.7272865166602 0
1030.71381244752 89.6300239654352 0
1045.7058900743 89.4966684872774 0
1060.91603249158 89.3396913016043 0
1076.34741152475 89.176379406724 0
1092.00324513452 89.0259578450868 0
1107.88679808786 88.9082692653345 0
1124.00138263891 88.8395820794058 0
1140.35035921963 88.829866539575 0
1156.93713714061 88.8837761500542 0
1173.76517530198 88.9999552084311 0
1190.83798291475 89.1717362152298 0
1208.15912023257 89.3866744638567 0
1225.73219929417 89.6330220929189 0
1243.56088467662 89.9012831282112 0
1261.64889425944 90.1790734936342 0
1280 90.4553771492649 0
1298.61802872003 90.7209604915904 0
1317.50686290367 90.969694842214 0
1336.67044150709 91.1959212384022 0
1356.1127607799 91.387346770299 0
1375.83787509849 91.532678984807 0
1395.84989781153 91.6233326336094 0
1416.15300209771 91.6520530204097 0
1436.751421836 91.6178993740499 0
1457.64945248857 91.5235074827293 0
1478.85145199651 91.3740400855559 0
1500.36184168864 91.1816172684069 0
1522.18510720348 90.9646682470955 0
1544.32579942467 90.746468743222 0
1566.78853542996 90.5521174159129 0
1589.57799945406 90.4007364727315 0
1612.69894386544 90.3052306226135 0
1636.15619015735 90.2655115082178 0
1659.95462995329 90.2635994063355 0
1684.09922602706 90.2757260654185 0
1708.59501333764 90.2782181620454 0
1733.44710007922 90.2513291051447 0
1758.66066874635 90.185137189709 0
1784.24097721472 90.0778049126758 0
1810.19335983756 89.9337405324547 0
1836.52322855808 89.7658338549731 0
1863.236074038 89.5944131525535 0
1890.33746680256 89.4377503280027 0
1917.83305840215 89.3052541828329 0
1945.72858259087 89.1960465498781 0
1974.02985652216 89.0936731704529 0
2002.74278196195 88.9703281584535 0
2031.87334651929 88.7928316591143 0
2061.42762489505 88.5217165559851 0
2091.41178014861 88.1204014318187 0
2121.83206498315 87.5653669411886 0
2152.69482304951 86.8599746024728 0
2184.00649026904 86.0563067856147 0
2215.77359617573 85.276146466158 0
2248.00276527782 84.685489086714 0
2280.70071843927 84.3865700925203 0
2313.87427428122 84.3211083808202 0
2347.53035060396 84.312880260494 0
2381.6759658295 84.1934976322441 0
2416.31824046513 83.8801244847901 0
2451.46439858835 83.4013713239659 0
2487.12176935323 82.9046668630807 0
2523.29778851888 82.5843831758723 0
2560 82.5099517147818 0
2597.23605744006 82.5374612254211 0
2635.01372580734 82.4376554788141 0
2673.34088301418 82.0609517311633 0
2712.2255215598 81.4207677659368 0
2751.67575019698 80.719652086478 0
2791.69979562306 80.2478519388185 0
2832.30600419541 80.1321412649353 0
2873.50284367199 80.2319767944426 0
2915.29890497713 80.3568627793464 0
2957.70290399302 80.4373315934217 0
3000.72368337728 80.4647634342533 0
3044.37021440697 80.3781564212078 0
3088.65159884934 80.0656963433739 0
3133.57707085992 79.4878183844753 0
3179.15599890812 78.8010470464106 0
3225.39788773088 78.3351508558961 0
3272.3123803147 78.2771251845244 0
3319.90925990658 78.4667084785529 0
3368.19845205411 78.7139745473188 0
3417.19002667529 79.0363400513484 0
3466.89420015845 79.5073601816861 0
3517.32133749271 80.0732967323636 0
3568.48195442944 80.6217300232725 0
3620.38671967512 81.1006419928652 0
3673.04645711616 81.5056268016531 0
3726.472148076 81.8462800125921 0
3780.67493360512 82.1464473160363 0
3835.66611680431 82.4241245873573 0
3891.45716518173 82.648309860822 0
3948.05971304433 82.784310480834 0
4005.4855639239 82.8887330026797 0
4063.74669303859 83.0706187579225 0
4122.85524979009 83.3576655808148 0
4182.82356029722 83.6916987513234 0
4243.6641299663 84.0112311508121 0
4305.38964609902 84.2804511707912 0
4368.01298053808 84.5703320867921 0
4431.54719235145 85.0969168214111 0
4496.00553055565 85.9340060205057 0
4561.40143687854 86.8447456881692 0
4627.74854856243 87.6179779387857 0
4695.06070120792 88.2166157074223 0
4763.35193165899 88.6118260527339 0
4832.63648093027 88.762559165889 0
4902.9287971767 88.7456366912262 0
4974.24353870646 88.7128778580666 0
5046.59557703776 88.7238875060571 0
5120 88.7548495441392 0
5194.47211488012 88.7896899180054 0
5270.02745161468 88.7944858688458 0
5346.68176602836 88.7091490164072 0
5424.45104311959 88.5318469760593 0
5503.35150039396 88.3333870946587 0
5583.39959124612 88.104854067635 0
5664.61200839083 87.758012776897 0
5747.00568734399 87.3352957282766 0
5830.59780995426 86.9474020017265 0
5915.40580798604 86.673703285837 0
6001.44736675456 86.6298504139079 0
6088.74042881393 86.8326199842532 0
6177.30319769867 87.2776784025329 0
6267.15414171983 88.0202752489488 0
6358.31199781624 88.9972165864492 0
6450.79577546175 90.0091870842616 0
6544.6247606294 90.836366686062 0
6639.81851981317 91.4950780326084 0
6736.39690410823 92.3487110653503 0
6834.38005335057 93.5162438877049 0
6933.78840031689 94.600013223577 0
7034.64267498542 95.2999857153236 0
7136.96390885887 95.5675948207902 0
7240.77343935025 95.4712588121381 0
7346.09291423232 95.1143760649151 0
7452.944296152 94.5867101190079 0
7561.34986721024 94.0356111579261 0
7671.33223360861 93.6379112660849 0
7782.91433036346 93.4774671608876 0
7896.11942608866 93.532161390488 0
8010.97112784781 93.7457484435456 0
8127.49338607718 94.0448599314258 0
8245.71049958018 94.3022466263762 0
8365.64712059443 94.3807282552868 0
8487.3282599326 94.2263690746022 0
8610.77929219804 93.9460498191052 0
8736.02596107615 93.6196457606813 0
8863.0943847029 93.1779571860607 0
8992.01106111129 92.4947537731656 0
9122.80287375708 91.6289663771971 0
9255.49709712487 90.861975507682 0
9390.12140241583 90.3204594161035 0
9526.70386331798 89.8737816253258 0
9665.27296186054 89.3847432601995 0
9805.85759435339 88.9225660482168 0
9948.48707741293 88.6850266609674 0
10093.1911540755 88.6783782375232 0
10240 88.8252002988614 0
10388.9442297602 89.0938583611664 0
10540.0549032294 89.2969788936034 0
10693.3635320567 89.2285636614904 0
10848.9020862392 88.8829567718675 0
11006.7030007879 88.5512996635058 0
11166.7991824922 88.5812196886268 0
11329.2240167817 88.8375567462281 0
11494.011374688 88.9424210715252 0
11661.1956199085 88.9966627988311 0
11830.8116159721 89.4284011352912 0
12002.8947335091 90.0128339151094 0
12177.4808576279 90.2264597276952 0
12354.6063953973 90.1180862394395 0
12534.3082834397 90.0518620193397 0
12716.6239956325 90.0465644156191 0
12901.5915509235 89.9728203297105 0
13089.2495212588 90.0218879552192 0
13279.6370396263 90.3299700151344 0
13472.7938082165 90.6419471391795 0
13668.7601067011 90.8411158373121 0
13867.5768006338 91.0147248646751 0
14069.2853499708 91.1243297097014 0
14273.9278177177 91.254831359909 0
14481.5468787005 91.4467179322591 0
14692.1858284646 91.4774713423411 0
14905.888592304 91.3952867394866 0
15122.6997344205 91.4808885551729 0
15342.6644672172 91.6908326582311 0
15565.8286607269 91.8148955190226 0
15792.2388521773 91.8093699289977 0
16021.9422556956 91.7811704877376 0
16254.9867721544 91.7405910870794 0
16491.4209991604 91.5273172264037 0
16731.2942411889 91.2633979924797 0
