Freq[Hz]     dBSPL  Phase[Deg]
2.0507813e+01 4.8628248e+01 -2.5915720e+01 
2.1972656e+01 5.1907903e+01 -2.7079901e+01 
2.3437500e+01 5.3793730e+01 -2.7076867e+01 
2.4902344e+01 5.6292043e+01 -3.4846218e+01 
2.6367188e+01 5.8547426e+01 -4.3430776e+01 
2.7832031e+01 6.0215348e+01 -5.4443198e+01 
2.9296875e+01 6.1702873e+01 -6.2700715e+01 
3.0761719e+01 6.3178111e+01 -7.0828615e+01 
3.2226563e+01 6.4535129e+01 -8.1088353e+01 
3.3691406e+01 6.5735024e+01 -9.0983225e+01 
3.5156250e+01 6.6693450e+01 -9.8395193e+01 
3.6621094e+01 6.7690678e+01 -1.0630476e+02 
3.8085938e+01 6.8626457e+01 -1.1380187e+02 
3.9550781e+01 6.9473825e+01 -1.2164626e+02 
4.1015625e+01 7.0187612e+01 -1.2947046e+02 
4.2480469e+01 7.0781322e+01 -1.3632907e+02 
4.3945313e+01 7.1309217e+01 -1.4262640e+02 
4.5410156e+01 7.1772537e+01 -1.4835914e+02 
4.6875000e+01 7.2198991e+01 -1.5357137e+02 
4.8339844e+01 7.2615605e+01 -1.5843331e+02 
5.1269531e+01 7.3394706e+01 -1.6741056e+02 
5.2734375e+01 7.3766655e+01 -1.7159705e+02 
5.4199219e+01 7.4109362e+01 -1.7548315e+02 
5.5664063e+01 7.4301233e+01 -1.7945404e+02 
5.8593750e+01 7.4892781e+01 1.7412850e+02 
6.0058594e+01 7.5212520e+01 1.7097588e+02 
6.2988281e+01 7.5767691e+01 1.6540281e+02 
6.4453125e+01 7.6043700e+01 1.6285745e+02 
6.7382813e+01 7.6551308e+01 1.5771139e+02 
6.8847656e+01 7.6783695e+01 1.5486075e+02 
7.1777344e+01 7.7327995e+01 1.4928716e+02 
7.4707031e+01 7.7807055e+01 1.4480463e+02 
7.7636719e+01 7.8135834e+01 1.4042679e+02 
7.9101563e+01 7.8317333e+01 1.3758748e+02 
8.2031250e+01 7.8791735e+01 1.3249538e+02 
8.4960938e+01 7.9184708e+01 1.2847960e+02 
8.7890625e+01 7.9400637e+01 1.2389934e+02 
9.0820313e+01 7.9694985e+01 1.1876568e+02 
9.5214844e+01 8.0109191e+01 1.1286448e+02 
9.8144531e+01 8.0264542e+01 1.0854239e+02 
1.0107422e+02 8.0471003e+01 1.0417983e+02 
1.0546875e+02 8.0720063e+01 9.8326018e+01 
1.0839844e+02 8.0806727e+01 9.4489321e+01 
1.1279297e+02 8.0984314e+01 8.8836465e+01 
1.1718750e+02 8.1158886e+01 8.3610278e+01 
1.2011719e+02 8.1186449e+01 7.9844902e+01 
1.2451172e+02 8.1216879e+01 7.5414340e+01 
1.2890625e+02 8.1220850e+01 7.0986232e+01 
1.3330078e+02 8.1232589e+01 6.7122053e+01 
1.3916016e+02 8.1232299e+01 6.1910534e+01 
1.4355469e+02 8.1161447e+01 5.8229302e+01 
1.4794922e+02 8.1070946e+01 5.5043894e+01 
1.5380859e+02 8.0961781e+01 5.1325712e+01 
1.5966797e+02 8.0884044e+01 4.7754485e+01 
1.6552734e+02 8.0754946e+01 4.4410466e+01 
1.7138672e+02 8.0677764e+01 4.1644675e+01 
1.7724609e+02 8.0582562e+01 3.8270045e+01 
1.8310547e+02 8.0375986e+01 3.5330696e+01 
1.8896484e+02 8.0131151e+01 3.3454135e+01 
1.9628906e+02 8.0097107e+01 3.1327050e+01 
2.0361328e+02 7.9916679e+01 2.8023610e+01 
2.1093750e+02 7.9658202e+01 2.5793484e+01 
2.1826172e+02 7.9395609e+01 2.3930721e+01 
2.2558594e+02 7.9103678e+01 2.2801431e+01 
2.3291016e+02 7.9075116e+01 2.2829637e+01 
2.4169922e+02 7.8977599e+01 2.0370688e+01 
2.5048828e+02 7.8862092e+01 1.9154783e+01 
2.5927734e+02 7.8785146e+01 1.7586255e+01 
2.6806641e+02 7.8737729e+01 1.5529645e+01 
2.7685547e+02 7.8497565e+01 1.3072281e+01 
2.8710938e+02 7.8088961e+01 1.2117483e+01 
2.9736328e+02 7.7959564e+01 1.2229059e+01 
3.0761719e+02 7.7842815e+01 1.1266597e+01 
3.1933594e+02 7.7882112e+01 9.4645154e+00 
3.2958984e+02 7.7540157e+01 8.2512255e+00 
3.4130859e+02 7.7487779e+01 7.4931501e+00 
3.5302734e+02 7.7222793e+01 5.6287428e+00 
3.6621094e+02 7.6886567e+01 5.4520859e+00 
3.7939453e+02 7.6657254e+01 5.0640868e+00 
3.9257813e+02 7.6143859e+01 5.5922497e+00 
4.0576172e+02 7.6446018e+01 8.0167463e+00 
4.2041016e+02 7.6100790e+01 3.9869365e+00 
4.3505859e+02 7.5378752e+01 6.5332161e+00 
4.5117188e+02 7.5513657e+01 7.9222960e+00 
4.6582031e+02 7.4986566e+01 9.2665734e+00 
4.8339844e+02 7.4999450e+01 1.3704711e+01 
4.9951172e+02 7.5288888e+01 1.7724237e+01 
5.1708984e+02 7.6486024e+01 1.7900943e+01 
5.3613281e+02 7.6606308e+01 1.1047832e+01 
5.5517578e+02 7.6453405e+01 1.0063742e+01 
5.7421875e+02 7.6622716e+01 8.3468360e+00 
5.9472656e+02 7.6339546e+01 4.8678838e+00 
6.1523438e+02 7.5961828e+01 3.9055232e+00 
6.3720703e+02 7.5741445e+01 4.3200721e+00 
6.5917969e+02 7.5759053e+01 3.3864768e+00 
6.8261719e+02 7.5952343e+01 1.1719436e+00 
7.0751953e+02 7.5278342e+01 -1.2749815e+00 
7.3242188e+02 7.5081132e+01 -3.1255257e+00 
7.5732422e+02 7.5259940e+01 -3.8253450e+00 
7.8515625e+02 7.3798615e+01 -5.5711627e+00 
8.1152344e+02 7.4140089e+01 -4.9885815e-01 
8.4082031e+02 7.3679712e+01 -2.1644058e+00 
8.7011719e+02 7.3005430e+01 6.1999095e+00 
9.0087891e+02 7.3266969e+01 5.5375199e+00 
9.3310547e+02 7.3296954e+01 9.1063560e+00 
9.6533203e+02 7.3016384e+01 8.5759781e+00 
1.0004883e+03 7.3156496e+01 5.2083846e+00 
1.0356445e+03 7.2684431e+01 5.5052507e+00 
1.0722656e+03 7.2778926e+01 2.1738265e+00 
1.1088867e+03 7.1583027e+01 2.0365037e+00 
1.1484375e+03 7.0465120e+01 1.1283051e+00 
1.1894531e+03 6.8941103e+01 1.0786489e+01 
1.2304688e+03 6.9687455e+01 2.0479240e+01 
1.2744141e+03 6.9793463e+01 2.7840669e+01 
1.3198242e+03 7.0634181e+01 2.4539533e+01 
1.3666992e+03 7.0153927e+01 3.0093643e+01 
1.4135742e+03 6.9787468e+01 2.8962818e+01 
1.4633789e+03 7.0026602e+01 3.6180805e+01 
1.5161133e+03 7.0245075e+01 3.6060029e+01 
1.5688477e+03 6.9833773e+01 4.1241693e+01 
1.6245117e+03 6.9574573e+01 3.8590714e+01 
1.6816406e+03 7.0138377e+01 4.5079617e+01 
1.7416992e+03 7.0829666e+01 5.1298774e+01 
1.8032227e+03 7.1571680e+01 4.2951386e+01 
1.8662109e+03 7.1565548e+01 3.5757262e+01 
1.9321289e+03 7.1261676e+01 2.4719196e+01 
1.9995117e+03 6.8985768e+01 3.2571267e+01 
2.0698242e+03 6.9299809e+01 4.5090712e+01 
2.1430664e+03 7.0487832e+01 4.3690261e+01 
2.2192383e+03 6.9663202e+01 4.4201949e+01 
2.2968750e+03 7.0399572e+01 4.6031947e+01 
2.3789063e+03 7.0750786e+01 4.2820889e+01 
2.4624023e+03 7.1110402e+01 4.1679696e+01 
2.5488281e+03 7.1895463e+01 2.7547097e+01 
2.6396484e+03 7.0465325e+01 2.5549997e+01 
2.7319336e+03 6.9328160e+01 1.9004253e+01 
2.8286133e+03 6.9359509e+01 1.0505002e+01 
2.9282227e+03 6.3986504e+01 -1.9136043e+01 
3.0307617e+03 6.7066256e+01 4.0316210e+01 
3.1376953e+03 6.6825053e+01 1.8040028e+01 
3.2490234e+03 6.5598853e+01 1.9655500e+01 
3.3632813e+03 6.8872911e+01 1.9990604e+01 
3.4819336e+03 6.9664021e+01 4.6482616e+00 
3.6049805e+03 6.8583293e+01 -5.4115532e+00 
3.7324219e+03 6.8387904e+01 -1.5961255e+01 
3.8642578e+03 6.8175594e+01 -2.5129577e+01 
4.0004883e+03 6.7715291e+01 -2.9577808e+01 
4.1411133e+03 6.9015365e+01 -3.5919691e+01 
4.2875977e+03 6.8971729e+01 -5.9588313e+01 
4.4384766e+03 6.5767855e+01 -7.7503623e+01 
4.5952148e+03 6.3306566e+01 -8.3351780e+01 
4.7563477e+03 5.8253068e+01 -6.3105842e+01 
4.9248047e+03 6.2195597e+01 -6.3353701e+01 
5.0976563e+03 6.2239574e+01 -8.2865464e+01 
5.2778320e+03 6.0457681e+01 -1.1835039e+02 
5.4638672e+03 5.9384905e+01 -1.6071736e+02 
5.6572266e+03 5.5320927e+01 1.1561535e+02 
5.8564453e+03 4.8302031e+01 9.0534627e+01 
6.0629883e+03 5.2168287e+01 1.1631720e+02 
6.2768555e+03 5.7832537e+01 6.7339126e+01 
6.4980469e+03 5.7097823e+01 3.6362271e+01 
6.7265625e+03 5.8413210e+01 1.2983564e+01 
6.9638672e+03 5.9864771e+01 -2.7234711e+01 
7.2099609e+03 5.3617963e+01 -8.4946839e+01 
7.4648438e+03 5.1471001e+01 -2.5931487e+01 
7.7270508e+03 5.7936267e+01 -5.7926793e+01 
7.9995117e+03 5.6882921e+01 -1.1209000e+02 
8.2822266e+03 5.2385731e+01 -1.0480085e+02 
8.5737305e+03 5.3407109e+01 -1.1434261e+02 
8.8769531e+03 5.3983028e+01 -1.5373969e+02 
9.1889648e+03 5.0778990e+01 1.6311397e+02 
9.5141602e+03 3.7407380e+01 -1.4696555e+02 
9.8496094e+03 4.8240798e+01 -1.5451265e+02 
1.0196777e+04 4.3029183e+01 1.1752650e+02 
1.0555664e+04 3.9005006e+01 -3.9319400e+01 
1.0927734e+04 4.5817365e+01 -6.5571356e+01 
1.1312988e+04 4.9206162e+01 -1.1732923e+02 
1.1712891e+04 4.4391865e+01 -1.5456406e+02 
1.2125977e+04 3.1399238e+01 1.2834655e+02 
1.2553711e+04 4.6677072e+01 -6.7333372e+01 
1.2996094e+04 3.9892281e+01 -1.5308824e+02 
1.3454590e+04 4.3718037e+01 -4.3357928e+01 
1.3929199e+04 4.3939030e+01 -7.9112684e+01 
1.4419922e+04 4.3569746e+01 -8.4012504e+01 
1.4928223e+04 4.3587707e+01 -9.4318316e+01 
1.5455566e+04 4.2629018e+01 -9.1947284e+01 
1.6000488e+04 4.6081222e+01 -7.7100547e+01 
1.6564453e+04 4.7052344e+01 -9.2021396e+01 
1.7148926e+04 4.9451742e+01 -9.2471854e+01 
1.7752441e+04 4.9939320e+01 -1.0958308e+02 
1.8379395e+04 5.0740567e+01 -1.1005784e+02 
1.9026855e+04 5.1233543e+01 -1.0835988e+02 
1.9697754e+04 5.4240675e+01 -1.2645344e+02 
1.9999512e+04 5.3834967e+01 -1.1881033e+02 
