Freq[Hz]     dBSPL  Phase[Deg]
2.0507813e+01 3.9980071e+01 -6.5959087e+01 
2.1972656e+01 4.4915758e+01 -5.7432627e+01 
2.3437500e+01 4.7089318e+01 -5.6128803e+01 
2.4902344e+01 5.0224895e+01 -6.7346807e+01 
2.6367188e+01 5.2806669e+01 -7.0215945e+01 
2.7832031e+01 5.5073023e+01 -8.0774051e+01 
2.9296875e+01 5.6922241e+01 -8.8333406e+01 
3.0761719e+01 5.8644996e+01 -9.5921128e+01 
3.2226563e+01 6.0330294e+01 -1.0523348e+02 
3.3691406e+01 6.1841723e+01 -1.1469464e+02 
3.5156250e+01 6.2929818e+01 -1.2215950e+02 
3.6621094e+01 6.4058885e+01 -1.2956298e+02 
3.8085938e+01 6.5103334e+01 -1.3663610e+02 
3.9550781e+01 6.6065910e+01 -1.4401199e+02 
4.1015625e+01 6.6877578e+01 -1.5148045e+02 
4.2480469e+01 6.7564537e+01 -1.5806933e+02 
4.3945313e+01 6.8176495e+01 -1.6415513e+02 
4.5410156e+01 6.8723197e+01 -1.6976504e+02 
4.6875000e+01 6.9217918e+01 -1.7493468e+02 
4.8339844e+01 6.9696564e+01 -1.7977900e+02 
5.1269531e+01 7.0577374e+01 1.7121152e+02 
5.2734375e+01 7.0990678e+01 1.6700532e+02 
5.4199219e+01 7.1371212e+01 1.6306415e+02 
5.5664063e+01 7.1624848e+01 1.5889016e+02 
5.8593750e+01 7.2280348e+01 1.5226419e+02 
6.0058594e+01 7.2632312e+01 1.4892042e+02 
6.2988281e+01 7.3229852e+01 1.4320536e+02 
6.4453125e+01 7.3534116e+01 1.4058180e+02 
6.7382813e+01 7.4111295e+01 1.3509018e+02 
6.8847656e+01 7.4371037e+01 1.3201618e+02 
7.1777344e+01 7.4960982e+01 1.2600556e+02 
7.4707031e+01 7.5484859e+01 1.2114433e+02 
7.7636719e+01 7.5868912e+01 1.1618503e+02 
7.9101563e+01 7.6067253e+01 1.1306282e+02 
8.2031250e+01 7.6568747e+01 1.0744035e+02 
8.4960938e+01 7.6982636e+01 1.0287664e+02 
8.7890625e+01 7.7222363e+01 9.7746899e+01 
9.0820313e+01 7.7533760e+01 9.2244155e+01 
9.5214844e+01 7.7982015e+01 8.5680055e+01 
9.8144531e+01 7.8165436e+01 8.0800171e+01 
1.0107422e+02 7.8402619e+01 7.5915448e+01 
1.0546875e+02 7.8680050e+01 6.9125254e+01 
1.0839844e+02 7.8791420e+01 6.4700651e+01 
1.1279297e+02 7.8995043e+01 5.7975360e+01 
1.1718750e+02 7.9195206e+01 5.1847465e+01 
1.2011719e+02 7.9217827e+01 4.7193345e+01 
1.2451172e+02 7.9237320e+01 4.2004938e+01 
1.2890625e+02 7.9242497e+01 3.6538428e+01 
1.3330078e+02 7.9233791e+01 3.1987320e+01 
1.3916016e+02 7.9269274e+01 2.5789264e+01 
1.4355469e+02 7.9244994e+01 2.1021413e+01 
1.4794922e+02 7.9147526e+01 1.6566519e+01 
1.5380859e+02 7.8992814e+01 1.1659595e+01 
1.5966797e+02 7.8938906e+01 6.9172491e+00 
1.6552734e+02 7.8773389e+01 2.1975823e+00 
1.7138672e+02 7.8726147e+01 -1.3303553e+00 
1.7724609e+02 7.8683610e+01 -6.1951632e+00 
1.8310547e+02 7.8481400e+01 -1.0506618e+01 
1.8896484e+02 7.8255772e+01 -1.3602961e+01 
1.9628906e+02 7.8270280e+01 -1.7516511e+01 
2.0361328e+02 7.8130904e+01 -2.2770159e+01 
2.1093750e+02 7.7859752e+01 -2.7071063e+01 
2.1826172e+02 7.7590929e+01 -3.0843351e+01 
2.2558594e+02 7.7227859e+01 -3.4047027e+01 
2.3291016e+02 7.7149466e+01 -3.5229433e+01 
2.4169922e+02 7.7093316e+01 -4.0063268e+01 
2.5048828e+02 7.6843528e+01 -4.3726880e+01 
2.5927734e+02 7.6679912e+01 -4.6394334e+01 
2.6806641e+02 7.6611842e+01 -5.0107934e+01 
2.7685547e+02 7.6398792e+01 -5.3862464e+01 
2.8710938e+02 7.6029325e+01 -5.7008662e+01 
2.9736328e+02 7.5927091e+01 -5.9254944e+01 
3.0761719e+02 7.5769025e+01 -6.2083286e+01 
3.1933594e+02 7.5878755e+01 -6.5068923e+01 
3.2958984e+02 7.5780597e+01 -6.9049224e+01 
3.4130859e+02 7.5807575e+01 -7.2906094e+01 
3.5302734e+02 7.5632990e+01 -7.8114725e+01 
3.6621094e+02 7.5248536e+01 -8.2182604e+01 
3.7939453e+02 7.4933317e+01 -8.4618052e+01 
3.9257813e+02 7.4720324e+01 -8.7723448e+01 
4.0576172e+02 7.4690694e+01 -8.8662230e+01 
4.2041016e+02 7.4768821e+01 -9.4017547e+01 
4.3505859e+02 7.4318546e+01 -9.6845101e+01 
4.5117188e+02 7.4632262e+01 -9.9261926e+01 
4.6582031e+02 7.4315009e+01 -1.0519074e+02 
4.8339844e+02 7.4527436e+01 -1.0774203e+02 
4.9951172e+02 7.4179767e+01 -1.1211393e+02 
5.1708984e+02 7.4902361e+01 -1.1535482e+02 
5.3613281e+02 7.4948833e+01 -1.2752150e+02 
5.5517578e+02 7.4287590e+01 -1.3475846e+02 
5.7421875e+02 7.3721321e+01 -1.4002578e+02 
5.9472656e+02 7.3032992e+01 -1.4531634e+02 
6.1523438e+02 7.2525358e+01 -1.4951815e+02 
6.3720703e+02 7.2425315e+01 -1.5235032e+02 
6.5917969e+02 7.2101727e+01 -1.5779856e+02 
6.8261719e+02 7.1447219e+01 -1.6530107e+02 
7.0751953e+02 7.0538978e+01 -1.6742397e+02 
7.3242188e+02 7.0035457e+01 -1.7026508e+02 
7.5732422e+02 6.9467912e+01 -1.6546960e+02 
7.8515625e+02 7.0375355e+01 -1.6881142e+02 
8.1152344e+02 7.0931130e+01 -1.7120399e+02 
8.4082031e+02 7.1851285e+01 -1.7607049e+02 
8.7011719e+02 7.0659166e+01 1.7250040e+02 
9.0087891e+02 7.0184216e+01 1.7220402e+02 
9.3310547e+02 6.9860304e+01 1.7576261e+02 
9.6533203e+02 7.0727981e+01 1.7253034e+02 
1.0004883e+03 7.1879668e+01 1.6104047e+02 
1.0356445e+03 7.1831413e+01 1.4931588e+02 
1.0722656e+03 7.0665042e+01 1.4284070e+02 
1.1088867e+03 7.1391452e+01 1.4586114e+02 
1.1484375e+03 7.2603078e+01 1.3102011e+02 
1.1894531e+03 7.3043991e+01 1.2492242e+02 
1.2304688e+03 7.3197964e+01 1.0818858e+02 
1.2744141e+03 7.3580582e+01 9.4505830e+01 
1.3198242e+03 7.2155192e+01 8.5635828e+01 
1.3666992e+03 7.2451079e+01 6.9120688e+01 
1.4135742e+03 7.1177687e+01 5.4111047e+01 
1.4633789e+03 6.8697539e+01 4.9652853e+01 
1.5161133e+03 6.9525993e+01 5.3591069e+01 
1.5688477e+03 7.0906773e+01 4.4369395e+01 
1.6245117e+03 7.1743250e+01 2.2569162e+01 
1.6816406e+03 7.0170961e+01 -1.7955574e+00 
1.7416992e+03 6.5503779e+01 -3.7849550e+01 
1.8032227e+03 5.9685568e+01 1.0522321e+01 
1.8662109e+03 6.6656026e+01 9.7867404e+00 
1.9321289e+03 6.9359601e+01 -1.2659846e+01 
1.9995117e+03 6.9933817e+01 -5.7286394e+01 
2.0698242e+03 6.8127903e+01 -9.3220977e+01 
2.1430664e+03 6.6731020e+01 -1.4435903e+02 
2.2192383e+03 6.2290225e+01 1.7164125e+02 
2.2968750e+03 5.5607014e+01 1.3536590e+02 
2.3789063e+03 6.0921711e+01 1.7310658e+02 
2.4624023e+03 6.0318332e+01 1.5986423e+02 
2.5488281e+03 6.4489932e+01 1.3262777e+02 
2.6396484e+03 6.2973536e+01 1.1165644e+02 
2.7319336e+03 6.2360000e+01 1.0883146e+02 
2.8286133e+03 6.8665081e+01 1.0321452e+02 
2.9282227e+03 6.4669710e+01 6.5298905e+01 
3.0307617e+03 6.2317167e+01 6.7585043e+01 
3.1376953e+03 6.5527786e+01 5.4321812e+01 
3.2490234e+03 6.5890040e+01 4.5538632e+01 
3.3632813e+03 6.4477564e+01 2.6535340e+01 
3.4819336e+03 6.6772096e+01 2.7366781e+01 
3.6049805e+03 6.5917749e+01 1.1782896e+01 
3.7324219e+03 6.4349060e+01 -5.2531389e+00 
3.8642578e+03 6.5379372e+01 -1.8584794e+01 
4.0004883e+03 6.2860736e+01 -2.6636644e+01 
4.1411133e+03 5.9228985e+01 -3.0655660e+01 
4.2875977e+03 5.9333444e+01 -1.7647951e+01 
4.4384766e+03 5.5229042e+01 -4.4753668e+00 
4.5952148e+03 5.9766970e+01 -7.2469916e+00 
4.7563477e+03 6.1905027e+01 4.3772025e+00 
4.9248047e+03 6.2422151e+01 -2.0414916e+01 
5.0976563e+03 6.2707848e+01 -2.5244597e+01 
5.2778320e+03 6.2379616e+01 -3.5190268e+01 
5.4638672e+03 6.2211847e+01 -4.5709100e+01 
5.6572266e+03 6.0637977e+01 -4.7709949e+01 
5.8564453e+03 6.0984384e+01 -5.1165010e+01 
6.0629883e+03 6.2232034e+01 -5.3567138e+01 
6.2768555e+03 6.1815370e+01 -6.8128189e+01 
6.4980469e+03 6.0910623e+01 -8.4844407e+01 
6.7265625e+03 5.7916220e+01 -8.2178799e+01 
6.9638672e+03 5.9317687e+01 -7.8357922e+01 
7.2099609e+03 5.8795317e+01 -8.8897271e+01 
7.4648438e+03 5.6680621e+01 -9.9756164e+01 
7.7270508e+03 5.6778916e+01 -8.3920920e+01 
7.9995117e+03 5.8094158e+01 -1.0118606e+02 
8.2822266e+03 5.6958802e+01 -1.2134240e+02 
8.5737305e+03 5.2559953e+01 -1.2484449e+02 
8.8769531e+03 5.1543802e+01 -1.0630275e+02 
9.1889648e+03 5.3188678e+01 -1.1271076e+02 
9.5141602e+03 5.1474890e+01 -1.2514593e+02 
9.8496094e+03 5.0266509e+01 -1.1776752e+02 
1.0196777e+04 5.0763416e+01 -1.1769665e+02 
1.0555664e+04 4.9120733e+01 -1.2119827e+02 
1.0927734e+04 4.9203328e+01 -1.1019820e+02 
1.1312988e+04 4.9936242e+01 -1.1603736e+02 
1.1712891e+04 4.9805432e+01 -1.2305707e+02 
1.2125977e+04 4.8345079e+01 -1.3562737e+02 
1.2553711e+04 4.7319165e+01 -1.3018181e+02 
1.2996094e+04 4.7250583e+01 -1.2979087e+02 
1.3454590e+04 4.6415767e+01 -1.3796650e+02 
1.3929199e+04 4.5035256e+01 -1.3111029e+02 
1.4419922e+04 4.4796267e+01 -1.3901008e+02 
1.4928223e+04 4.5200400e+01 -1.3162499e+02 
1.5455566e+04 4.6539780e+01 -1.4314284e+02 
1.6000488e+04 4.6712613e+01 -1.5695481e+02 
1.6564453e+04 4.6929269e+01 -1.7252862e+02 
1.7148926e+04 4.6069543e+01 1.6572347e+02 
1.7752441e+04 4.4508150e+01 1.5512369e+02 
1.8379395e+04 4.2498824e+01 1.5180316e+02 
1.9026855e+04 4.3698622e+01 1.4860316e+02 
1.9697754e+04 4.2303331e+01 1.2085843e+02 
1.9999512e+04 4.4494846e+01 1.5965717e+02 
