Freq[Hz]     dBSPL  Phase[Deg]
2.0507813e+01 7.2388377e+01 1.3502408e+02
2.1972656e+01 7.4000776e+01 1.2537900e+02
2.3437500e+01 7.5495110e+01 1.1378040e+02
2.4902344e+01 7.6851469e+01 9.9602249e+01
2.6367188e+01 7.8088515e+01 8.4366053e+01
2.7832031e+01 7.9054332e+01 6.8845297e+01
2.9296875e+01 7.9813311e+01 5.3717033e+01
3.0761719e+01 8.0325343e+01 3.9449705e+01
3.2226563e+01 8.0643383e+01 2.5406957e+01
3.3691406e+01 8.0813530e+01 1.4713995e+01
3.5156250e+01 8.1138836e+01 3.8504234e+00
3.6621094e+01 8.1368352e+01 -5.6743666e+00
3.8085938e+01 8.1566673e+01 -1.4234465e+01
3.9550781e+01 8.1777120e+01 -2.2244155e+01
4.1015625e+01 8.2010969e+01 -2.9687884e+01
4.2480469e+01 8.2266525e+01 -3.6583992e+01
4.3945313e+01 8.2521316e+01 -4.2834396e+01
4.5410156e+01 8.2806359e+01 -4.8880891e+01
4.6875000e+01 8.3088082e+01 -5.4919771e+01
4.8339844e+01 8.3358432e+01 -6.0936014e+01
5.1269531e+01 8.3945051e+01 -7.2174219e+01
5.2734375e+01 8.4187360e+01 -7.7411105e+01
5.4199219e+01 8.4407082e+01 -8.2644193e+01
5.5664063e+01 8.4642016e+01 -8.7922541e+01
5.8593750e+01 8.5085957e+01 -9.8478318e+01
6.0058594e+01 8.5285085e+01 -1.0398294e+02
6.2988281e+01 8.5692088e+01 -1.1385518e+02
6.4453125e+01 8.5882346e+01 -1.1834124e+02
6.7382813e+01 8.6218547e+01 -1.2757568e+02
6.8847656e+01 8.6342820e+01 -1.3271317e+02
7.1777344e+01 8.6598688e+01 -1.4348728e+02
7.4707031e+01 8.6770884e+01 -1.5255055e+02
7.7636719e+01 8.6800835e+01 -1.6146093e+02
7.9101563e+01 8.6807094e+01 -1.6615829e+02
8.2031250e+01 8.6857399e+01 -1.7512647e+02
8.4960938e+01 8.6886326e+01 1.7683011e+02
8.7890625e+01 8.6808550e+01 1.6906725e+02
9.0820313e+01 8.6786414e+01 1.6151084e+02
9.5214844e+01 8.6772321e+01 1.5060402e+02
9.8144531e+01 8.6781029e+01 1.4327456e+02
1.0107422e+02 8.6716567e+01 1.3570703e+02
1.0546875e+02 8.6499900e+01 1.2538013e+02
1.0839844e+02 8.6346212e+01 1.1953989e+02
1.1279297e+02 8.6315594e+01 1.1102741e+02
1.1718750e+02 8.6299680e+01 1.0153405e+02
1.2011719e+02 8.6218308e+01 9.4796130e+01
1.2451172e+02 8.5899407e+01 8.5612167e+01
1.2890625e+02 8.5633603e+01 7.7967701e+01
1.3330078e+02 8.5438565e+01 7.0320772e+01
1.3916016e+02 8.5154633e+01 5.9880210e+01
1.4355469e+02 8.4914181e+01 5.2749179e+01
1.4794922e+02 8.4686229e+01 4.5968190e+01
1.5380859e+02 8.4528471e+01 3.6904730e+01
1.5966797e+02 8.4281204e+01 2.6858850e+01
1.6552734e+02 8.3952236e+01 1.7424743e+01
1.7138672e+02 8.3627685e+01 7.8162624e+00
1.7724609e+02 8.3182080e+01 -1.8576296e+00
1.8310547e+02 8.2525809e+01 -1.0571201e+01
1.8896484e+02 8.1923750e+01 -1.7676231e+01
1.9628906e+02 8.1703085e+01 -2.5671696e+01
2.0361328e+02 8.1248466e+01 -3.6077331e+01
2.1093750e+02 8.0416939e+01 -4.6762344e+01
2.1826172e+02 7.9526372e+01 -5.2930765e+01
2.2558594e+02 7.9211724e+01 -5.5975001e+01
2.3291016e+02 7.9518208e+01 -6.4801514e+01
2.4169922e+02 7.9066406e+01 -7.6032769e+01
2.5048828e+02 7.8811430e+01 -8.6659446e+01
2.5927734e+02 7.8287293e+01 -9.7784541e+01
2.6806641e+02 7.7176615e+01 -1.0978105e+02
2.7685547e+02 7.6463956e+01 -1.1529511e+02
2.8710938e+02 7.5242510e+01 -1.2086338e+02
2.9736328e+02 7.5002360e+01 -1.2924345e+02
3.0761719e+02 7.4325797e+01 -1.3024709e+02
3.1933594e+02 7.5220648e+01 -1.3854564e+02
3.2958984e+02 7.5397455e+01 -1.5007106e+02
3.4130859e+02 7.4865951e+01 -1.5791749e+02
3.5302734e+02 7.4666487e+01 -1.7081244e+02
3.6621094e+02 7.4512809e+01 -1.7491718e+02
3.7939453e+02 7.4262701e+01 1.7126362e+02
3.9257813e+02 7.4612392e+01 1.6609319e+02
4.0576172e+02 7.5446872e+01 1.5667989e+02
4.2041016e+02 7.5730896e+01 1.4921969e+02
4.3505859e+02 7.7215120e+01 1.2816388e+02
4.5117188e+02 7.7869987e+01 1.1020434e+02
4.6582031e+02 7.7424021e+01 8.7379298e+01
4.8339844e+02 7.5906895e+01 7.1453458e+01
4.9951172e+02 7.7136506e+01 6.6381829e+01
5.1708984e+02 7.7150901e+01 4.8059838e+01
5.3613281e+02 7.8680966e+01 2.3701892e+01
5.5517578e+02 7.8422429e+01 -4.7623699e+00
5.7421875e+02 7.8601051e+01 -2.5310061e+01
5.9472656e+02 7.8053039e+01 -4.6520734e+01
6.1523438e+02 7.8298250e+01 -7.9316672e+01
6.3720703e+02 7.7849517e+01 -9.0197185e+01
6.5917969e+02 7.7542684e+01 -1.1763592e+02
6.8261719e+02 7.9367614e+01 -1.5261417e+02
7.0751953e+02 7.8099061e+01 -1.7715599e+02
7.3242188e+02 7.8716112e+01 1.4399764e+02
7.5732422e+02 7.8277313e+01 1.2620264e+02
7.8515625e+02 8.0106371e+01 8.0351428e+01
8.1152344e+02 7.9885150e+01 3.1077553e+01
8.4082031e+02 7.9723199e+01 -1.5281545e+01
8.7011719e+02 7.4609121e+01 -4.5208627e+01
9.0087891e+02 7.5591876e+01 -9.1543862e+01
9.3310547e+02 7.3264908e+01 -1.3920193e+02
9.6533203e+02 7.0673419e+01 -1.5454575e+02
1.0004883e+03 7.1790658e+01 1.5799945e+02
1.0356445e+03 7.2336515e+01 1.0083395e+02
1.0722656e+03 6.7235425e+01 9.4557373e+01
1.1088867e+03 7.0316919e+01 4.5995532e+01
1.1484375e+03 7.5539220e+01 -1.8292725e+01
1.1894531e+03 7.5353712e+01 -8.6867115e+01
1.2304688e+03 7.4611525e+01 -1.4792020e+02
1.2744141e+03 7.5457485e+01 1.4791929e+02
1.3198242e+03 7.6342052e+01 9.1030070e+01
1.3666992e+03 7.5594347e+01 1.2367983e+01
1.4135742e+03 6.9206972e+01 -6.2036019e+01
1.4633789e+03 6.7148350e+01 -7.1028755e+01
1.5161133e+03 6.7419464e+01 -1.0912937e+02
1.5688477e+03 7.2136398e+01 -1.7921702e+02
1.6245117e+03 6.9975668e+01 1.3278711e+02
1.6816406e+03 7.4329844e+01 3.2976090e+01
1.7416992e+03 6.8233781e+01 -8.3348663e+01
1.8032227e+03 6.3828323e+01 -1.2572723e+02
1.8662109e+03 6.7415427e+01 -1.3049034e+02
1.9321289e+03 6.5161967e+01 9.2830743e+01
1.9995117e+03 5.7267432e+01 7.4578010e+01
2.0698242e+03 6.6399609e+01 1.1258671e+02
2.1430664e+03 7.0913305e+01 5.3667516e+01
2.2192383e+03 7.1914529e+01 -7.7588759e+01
2.2968750e+03 7.2586938e+01 1.7627027e+02
2.3789063e+03 7.2982026e+01 5.7891686e+01
2.4624023e+03 6.9281398e+01 -5.7189203e+01
2.5488281e+03 6.4342180e+01 -1.0431396e+02
2.6396484e+03 7.2647260e+01 1.6096351e+02
2.7319336e+03 7.6553667e+01 1.3268815e+01
2.8286133e+03 7.5199858e+01 -1.1607499e+02
2.9282227e+03 7.4119218e+01 1.0869963e+02
3.0307617e+03 6.6525628e+01 -1.1719466e+01
3.1376953e+03 6.7164836e+01 -8.5732310e+01
3.2490234e+03 6.8066243e+01 1.4497904e+02
3.3632813e+03 6.9180103e+01 2.1584001e+01
3.4819336e+03 7.2188647e+01 -1.0717477e+02
3.6049805e+03 7.1349794e+01 1.0048897e+02
3.7324219e+03 6.9483990e+01 -4.4524711e+01
3.8642578e+03 6.4394946e+01 -1.7581861e+02
4.0004883e+03 7.1423109e+01 4.2146574e+01
4.1411133e+03 7.2048631e+01 -1.3385516e+02
4.2875977e+03 6.9948527e+01 5.7753524e+01
4.4384766e+03 6.7520353e+01 -9.7789879e+01
4.5952148e+03 6.9202828e+01 9.5779116e+01
4.7563477e+03 6.8437332e+01 -9.7597711e+01
4.9248047e+03 6.0943231e+01 7.6217619e+01
5.0976563e+03 6.7670014e+01 -8.0810699e+01
5.2778320e+03 6.9017263e+01 7.1376749e+01
5.4638672e+03 6.4983344e+01 -1.3961607e+02
5.6572266e+03 6.5243158e+01 3.9089525e+00
5.8564453e+03 6.4708197e+01 1.5260563e+02
6.0629883e+03 6.4892660e+01 -7.4228419e+01
6.2768555e+03 5.6466868e+01 4.0546615e+01
6.4980469e+03 6.9116560e+01 -1.4569491e+02
6.7265625e+03 6.7679187e+01 -1.2325219e+02
6.9638672e+03 6.4791378e+01 1.6877307e+02
7.2099609e+03 6.6746019e+01 1.3693604e+02
7.4648438e+03 5.9465510e+01 1.6126576e+02
7.7270508e+03 6.2962158e+01 -7.4732234e+01
7.9995117e+03 6.2461115e+01 -1.7838523e+01
8.2822266e+03 5.9609620e+01 5.9293518e+01
8.5737305e+03 6.0320778e+01 7.1397948e+01
8.8769531e+03 5.4612985e+01 1.5902141e+02
9.1889648e+03 5.7055015e+01 1.5022228e+02
9.5141602e+03 5.6632631e+01 1.7538057e+02
9.8496094e+03 4.6666249e+01 5.4102009e+00
1.0196777e+04 4.0167516e+01 1.5961425e+02
1.0555664e+04 5.5106257e+01 1.3398862e+02
1.0927734e+04 5.1777772e+01 1.2657806e+02
1.1312988e+04 5.3716525e+01 -1.2060870e+02
1.1712891e+04 5.2475608e+01 -7.6174310e+01
1.2125977e+04 5.2967034e+01 -1.0356492e+01
1.2553711e+04 5.5524867e+01 -1.1364622e+02
1.2996094e+04 5.1348750e+01 1.4308674e+02
1.3454590e+04 5.2517226e+01 2.1919880e+01
1.3929199e+04 5.0743815e+01 -1.2390040e+02
1.4419922e+04 5.2730251e+01 2.7492237e+01
1.4928223e+04 5.4932058e+01 1.6936194e+02
1.5455566e+04 5.4245861e+01 -5.7407752e+01
1.6000488e+04 5.1187172e+01 4.2619714e+01
1.6564453e+04 4.3375029e+01 -1.0134841e+02
1.7148926e+04 4.3189073e+01 1.5210726e+02
1.7752441e+04 4.6684760e+01 -1.6970765e+02
1.8379395e+04 4.4881811e+01 -1.6093082e+02
1.9026855e+04 4.1096074e+01 1.5715974e+02
1.9697754e+04 4.3286344e+01 4.0269968e+00
1.9999512e+04 4.9751129e+01 -1.5915442e+02
