Freq[Hz]     dBSPL  Phase[Deg]
2.0507813e+01 7.3071152e+01 1.3659454e+02
2.1972656e+01 7.4657615e+01 1.2715978e+02
2.3437500e+01 7.6124458e+01 1.1567694e+02
2.4902344e+01 7.7432543e+01 1.0159465e+02
2.6367188e+01 7.8624898e+01 8.6504900e+01
2.7832031e+01 7.9550309e+01 7.1039815e+01
2.9296875e+01 8.0270818e+01 5.5955881e+01
3.0761719e+01 8.0753354e+01 4.1641834e+01
3.2226563e+01 8.1006445e+01 2.7576716e+01
3.3691406e+01 8.1159338e+01 1.6872081e+01
3.5156250e+01 8.1428003e+01 5.9838877e+00
3.6621094e+01 8.1625347e+01 -3.5383160e+00
3.8085938e+01 8.1794918e+01 -1.2141838e+01
3.9550781e+01 8.1978070e+01 -2.0198441e+01
4.1015625e+01 8.2189901e+01 -2.7694799e+01
4.2480469e+01 8.2422255e+01 -3.4669950e+01
4.3945313e+01 8.2657392e+01 -4.0999384e+01
4.5410156e+01 8.2919485e+01 -4.7132418e+01
4.6875000e+01 8.3177801e+01 -5.3247649e+01
4.8339844e+01 8.3427960e+01 -5.9323826e+01
5.1269531e+01 8.3976681e+01 -7.0689542e+01
5.2734375e+01 8.4203069e+01 -7.5998596e+01
5.4199219e+01 8.4407159e+01 -8.1324821e+01
5.5664063e+01 8.4622242e+01 -8.6687129e+01
5.8593750e+01 8.5029204e+01 -9.7373835e+01
6.0058594e+01 8.5211052e+01 -1.0293916e+02
6.2988281e+01 8.5582710e+01 -1.1292504e+02
6.4453125e+01 8.5757613e+01 -1.1746466e+02
6.7382813e+01 8.6072923e+01 -1.2679504e+02
6.8847656e+01 8.6188265e+01 -1.3199180e+02
7.1777344e+01 8.6428336e+01 -1.4298342e+02
7.4707031e+01 8.6568415e+01 -1.5220247e+02
7.7636719e+01 8.6583370e+01 -1.6129715e+02
7.9101563e+01 8.6578483e+01 -1.6608477e+02
8.2031250e+01 8.6605356e+01 -1.7519307e+02
8.4960938e+01 8.6620212e+01 1.7658473e+02
8.7890625e+01 8.6515148e+01 1.6867879e+02
9.0820313e+01 8.6490756e+01 1.6109542e+02
9.5214844e+01 8.6468902e+01 1.4999230e+02
9.8144531e+01 8.6504218e+01 1.4250497e+02
1.0107422e+02 8.6446333e+01 1.3457849e+02
1.0546875e+02 8.6217403e+01 1.2379497e+02
1.0839844e+02 8.6040315e+01 1.1771493e+02
1.1279297e+02 8.5982317e+01 1.0902363e+02
1.1718750e+02 8.5955344e+01 9.9353866e+01
1.2011719e+02 8.5870812e+01 9.2515045e+01
1.2451172e+02 8.5552459e+01 8.3109887e+01
1.2890625e+02 8.5284670e+01 7.5339334e+01
1.3330078e+02 8.5093968e+01 6.7436721e+01
1.3916016e+02 8.4809793e+01 5.6754674e+01
1.4355469e+02 8.4571263e+01 4.9480312e+01
1.4794922e+02 8.4352860e+01 4.2499798e+01
1.5380859e+02 8.4223285e+01 3.3222656e+01
1.5966797e+02 8.4015778e+01 2.2626617e+01
1.6552734e+02 8.3656023e+01 1.2591055e+01
1.7138672e+02 8.3306382e+01 2.9572004e+00
1.7724609e+02 8.2924303e+01 -6.8804677e+00
1.8310547e+02 8.2314686e+01 -1.6228497e+01
1.8896484e+02 8.1721855e+01 -2.3957739e+01
1.9628906e+02 8.1524189e+01 -3.2376976e+01
2.0361328e+02 8.1053280e+01 -4.3883904e+01
2.1093750e+02 8.0177990e+01 -5.4827394e+01
2.1826172e+02 7.9330435e+01 -6.1753588e+01
2.2558594e+02 7.8836529e+01 -6.6029844e+01
2.3291016e+02 7.9059410e+01 -7.3593594e+01
2.4169922e+02 7.8780622e+01 -8.4690416e+01
2.5048828e+02 7.8716582e+01 -9.6160561e+01
2.5927734e+02 7.8220668e+01 -1.0937798e+02
2.6806641e+02 7.6960973e+01 -1.2328130e+02
2.7685547e+02 7.6011686e+01 -1.2806220e+02
2.8710938e+02 7.4745529e+01 -1.3443993e+02
2.9736328e+02 7.4512125e+01 -1.4286722e+02
3.0761719e+02 7.3547478e+01 -1.4390948e+02
3.1933594e+02 7.4820450e+01 -1.5132679e+02
3.2958984e+02 7.5147389e+01 -1.6512914e+02
3.4130859e+02 7.4176248e+01 -1.7560152e+02
3.5302734e+02 7.3687017e+01 1.7117957e+02
3.6621094e+02 7.3372743e+01 1.7027922e+02
3.7939453e+02 7.3607807e+01 1.5242817e+02
3.9257813e+02 7.3090609e+01 1.4534622e+02
4.0576172e+02 7.3403063e+01 1.3791725e+02
4.2041016e+02 7.3164319e+01 1.3734256e+02
4.3505859e+02 7.5913551e+01 1.1607523e+02
4.5117188e+02 7.6849733e+01 9.4886050e+01
4.6582031e+02 7.6491406e+01 6.5609841e+01
4.8339844e+02 7.4672475e+01 4.6296134e+01
4.9951172e+02 7.5111562e+01 4.4050859e+01
5.1708984e+02 7.5392904e+01 3.2827906e+01
5.3613281e+02 7.7355885e+01 9.7252216e+00
5.5517578e+02 7.7020926e+01 -1.9914750e+01
5.7421875e+02 7.7001128e+01 -3.8917507e+01
5.9472656e+02 7.6682806e+01 -6.0780090e+01
6.1523438e+02 7.7040753e+01 -9.2690144e+01
6.3720703e+02 7.6603844e+01 -1.0275943e+02
6.5917969e+02 7.7047776e+01 -1.3066302e+02
6.8261719e+02 7.9272224e+01 -1.6389288e+02
7.0751953e+02 7.8404418e+01 1.7227142e+02
7.3242188e+02 7.9965150e+01 1.3058336e+02
7.5732422e+02 7.9897731e+01 1.0058600e+02
7.8515625e+02 8.1351245e+01 5.6655841e+01
8.1152344e+02 8.1468963e+01 1.6503414e+01
8.4082031e+02 8.2523449e+01 -3.3177805e+01
8.7011719e+02 7.9931436e+01 -8.0697712e+01
9.0087891e+02 7.9085297e+01 -1.2311666e+02
9.3310547e+02 7.7072749e+01 -1.7951807e+02
9.6533203e+02 7.0811284e+01 1.4851473e+02
1.0004883e+03 7.2489415e+01 1.2835502e+02
1.0356445e+03 7.3303022e+01 7.9150033e+01
1.0722656e+03 6.9054021e+01 4.6756823e+01
1.1088867e+03 7.1964147e+01 2.0872309e+01
1.1484375e+03 7.6452512e+01 -3.7469292e+01
1.1894531e+03 7.6557123e+01 -1.0201399e+02
1.2304688e+03 7.6521984e+01 -1.5874869e+02
1.2744141e+03 7.8116301e+01 1.3342685e+02
1.3198242e+03 7.8196713e+01 6.7485105e+01
1.3666992e+03 7.7777961e+01 -1.1474062e+01
1.4135742e+03 7.3305169e+01 -9.2070936e+01
1.4633789e+03 6.6006563e+01 -1.5706744e+02
1.5161133e+03 6.5026993e+01 -1.5918090e+02
1.5688477e+03 7.1964986e+01 1.4138212e+02
1.6245117e+03 7.0462321e+01 5.2500061e+01
1.6816406e+03 7.1665613e+01 -1.2303220e+01
1.7416992e+03 6.6616650e+01 -1.1860481e+02
1.8032227e+03 6.7901636e+01 -1.2828227e+02
1.8662109e+03 6.8862633e+01 1.6569677e+02
1.9321289e+03 6.9654673e+01 6.1025673e+01
1.9995117e+03 7.0938926e+01 -6.8777903e+01
2.0698242e+03 7.0205057e+01 1.0836394e+02
2.1430664e+03 6.3623892e+01 -7.1780204e+01
2.2192383e+03 6.9192917e+01 -1.3405912e+02
2.2968750e+03 7.2192951e+01 1.0220619e+02
2.3789063e+03 6.8895659e+01 -3.3258050e+01
2.4624023e+03 6.8095311e+01 -1.4562424e+02
2.5488281e+03 6.2653596e+01 -2.7318410e+01
2.6396484e+03 6.9419676e+01 1.3290045e+02
2.7319336e+03 7.6582278e+01 -2.1262505e+01
2.8286133e+03 7.7546689e+01 1.7678685e+02
2.9282227e+03 7.6216430e+01 2.9761951e+01
3.0307617e+03 7.3083377e+01 -1.2399237e+02
3.1376953e+03 7.0749667e+01 5.7089803e+01
3.2490234e+03 7.2341618e+01 1.6952851e+02
3.3632813e+03 7.4815913e+01 -4.2095835e+01
3.4819336e+03 7.0964161e+01 1.3992357e+02
3.6049805e+03 7.2106894e+01 -1.4968326e+01
3.7324219e+03 7.3025583e+01 1.3528275e+02
3.8642578e+03 7.1936586e+01 -1.3106129e+02
4.0004883e+03 7.3580171e+01 -3.2074085e-01
4.1411133e+03 7.5570147e+01 1.4381551e+02
4.2875977e+03 7.4162129e+01 -9.5261621e+01
4.4384766e+03 6.9820658e+01 -1.5721772e+01
4.5952148e+03 7.1432034e+01 6.4021331e+01
4.7563477e+03 7.2183347e+01 1.6769187e+02
4.9248047e+03 6.5424938e+01 -6.8732871e+01
5.0976563e+03 6.0988937e+01 -1.4725560e+02
5.2778320e+03 6.6413620e+01 -3.1270686e+01
5.4638672e+03 6.0302573e+01 4.4617361e+01
5.6572266e+03 6.5852197e+01 -8.3507147e+01
5.8564453e+03 6.6449298e+01 2.8719795e+01
6.0629883e+03 6.3850923e+01 -1.2595334e+02
6.2768555e+03 6.7192521e+01 -6.5339911e+01
6.4980469e+03 6.2693899e+01 -4.1025876e+01
6.7265625e+03 5.9930641e+01 1.6181890e+02
6.9638672e+03 6.0381380e+01 -1.5202073e+02
7.2099609e+03 6.3591878e+01 2.4847741e+01
7.4648438e+03 6.1977847e+01 9.3276993e+01
7.7270508e+03 6.3077208e+01 1.7334006e+02
7.9995117e+03 6.0815593e+01 -1.4964796e+02
8.2822266e+03 5.8016236e+01 -1.0645766e+02
8.5737305e+03 5.4100147e+01 -3.5365062e+00
8.8769531e+03 4.9685152e+01 1.1237719e+02
9.1889648e+03 5.5304509e+01 4.2744088e+01
9.5141602e+03 5.3867407e+01 4.7847346e+01
9.8496094e+03 4.6797400e+01 -6.3859262e+01
1.0196777e+04 5.0726537e+01 -3.6128683e+01
1.0555664e+04 5.2152331e+01 3.9931994e+01
1.0927734e+04 5.1016520e+01 2.7187047e+01
1.1312988e+04 4.9576166e+01 -1.2959173e+02
1.1712891e+04 5.1747020e+01 -1.1712897e+02
1.2125977e+04 5.3435072e+01 -1.7606052e+02
1.2553711e+04 5.0573607e+01 9.2017832e+01
1.2996094e+04 4.9952464e+01 -1.4190008e+01
1.3454590e+04 4.9724005e+01 -1.5867800e+02
1.3929199e+04 5.1904888e+01 2.1972837e+01
1.4419922e+04 5.1466088e+01 -1.5804679e+02
1.4928223e+04 5.0589992e+01 -1.0353240e+01
1.5455566e+04 4.8288786e+01 1.1794130e+02
1.6000488e+04 4.7498586e+01 -1.7943474e+02
1.6564453e+04 4.6146153e+01 -9.8153680e+01
1.7148926e+04 3.7415200e+01 -1.3417151e+02
1.7752441e+04 4.4656744e+01 -6.2489672e+01
1.8379395e+04 4.0278736e+01 -1.1518676e+02
1.9026855e+04 3.7916811e+01 1.7349911e+02
1.9697754e+04 4.3632365e+01 1.0855028e+02
1.9999512e+04 4.5614331e+01 1.0929563e+02
