Freq[Hz]     dBSPL  Phase[Deg]
2.0507813e+01 6.9093249e+01 1.2649315e+02
2.1972656e+01 7.0799203e+01 1.1622083e+02
2.3437500e+01 7.2444574e+01 1.0395529e+02
2.4902344e+01 7.3900863e+01 8.8065942e+01
2.6367188e+01 7.5214476e+01 7.2034272e+01
2.7832031e+01 7.6282330e+01 5.5748213e+01
2.9296875e+01 7.7183174e+01 4.0083288e+01
3.0761719e+01 7.7859095e+01 2.5168925e+01
3.2226563e+01 7.8194573e+01 9.0618277e+00
3.3691406e+01 7.8410120e+01 -8.6671386e-01
3.5156250e+01 7.8763529e+01 -1.2178035e+01
3.6621094e+01 7.9073816e+01 -2.2012001e+01
3.8085938e+01 7.9342072e+01 -3.0878348e+01
3.9550781e+01 7.9616948e+01 -3.9212811e+01
4.1015625e+01 7.9914903e+01 -4.7006961e+01
4.2480469e+01 8.0226994e+01 -5.4292872e+01
4.3945313e+01 8.0551322e+01 -6.0960470e+01
4.5410156e+01 8.0875670e+01 -6.7488190e+01
4.6875000e+01 8.1193276e+01 -7.3940585e+01
4.8339844e+01 8.1507988e+01 -8.0334004e+01
5.1269531e+01 8.2169776e+01 -9.2339819e+01
5.2734375e+01 8.2448390e+01 -9.7963978e+01
5.4199219e+01 8.2701104e+01 -1.0363231e+02
5.5664063e+01 8.2957858e+01 -1.0930487e+02
5.8593750e+01 8.3424155e+01 -1.2066918e+02
6.0058594e+01 8.3657773e+01 -1.2640259e+02
6.2988281e+01 8.4136642e+01 -1.3702419e+02
6.4453125e+01 8.4340431e+01 -1.4199203e+02
6.7382813e+01 8.4714212e+01 -1.5161407e+02
6.8847656e+01 8.4880137e+01 -1.5698113e+02
7.1777344e+01 8.5261159e+01 -1.6854875e+02
7.4707031e+01 8.5446185e+01 -1.7859574e+02
7.7636719e+01 8.5563013e+01 1.7185659e+02
7.9101563e+01 8.5596529e+01 1.6680344e+02
8.2031250e+01 8.5692940e+01 1.5729655e+02
8.4960938e+01 8.5815771e+01 1.4855830e+02
8.7890625e+01 8.5788463e+01 1.3999547e+02
9.0820313e+01 8.5842187e+01 1.3217498e+02
9.5214844e+01 8.5967167e+01 1.1983532e+02
9.8144531e+01 8.6117824e+01 1.1215493e+02
1.0107422e+02 8.6200807e+01 1.0332913e+02
1.0546875e+02 8.6193878e+01 9.1303479e+01
1.0839844e+02 8.6085897e+01 8.3663648e+01
1.1279297e+02 8.6002111e+01 7.3240037e+01
1.1718750e+02 8.5969075e+01 6.3082951e+01
1.2011719e+02 8.5985791e+01 5.5814752e+01
1.2451172e+02 8.5824810e+01 4.5465593e+01
1.2890625e+02 8.5745225e+01 3.6275647e+01
1.3330078e+02 8.5665634e+01 2.6439140e+01
1.3916016e+02 8.5532380e+01 1.4547944e+01
1.4355469e+02 8.5434539e+01 5.5419504e+00
1.4794922e+02 8.5341285e+01 -3.0113864e+00
1.5380859e+02 8.5426456e+01 -1.4414281e+01
1.5966797e+02 8.5403624e+01 -2.8343806e+01
1.6552734e+02 8.4869620e+01 -4.1560687e+01
1.7138672e+02 8.4452843e+01 -5.0563607e+01
1.7724609e+02 8.4415465e+01 -6.1709679e+01
1.8310547e+02 8.4035799e+01 -7.3369801e+01
1.8896484e+02 8.3603264e+01 -8.2622442e+01
1.9628906e+02 8.3761538e+01 -9.3797953e+01
2.0361328e+02 8.3477970e+01 -1.1028957e+02
2.1093750e+02 8.2634207e+01 -1.2045398e+02
2.1826172e+02 8.2701529e+01 -1.3114564e+02
2.2558594e+02 8.2281086e+01 -1.4559809e+02
2.3291016e+02 8.1651673e+01 -1.4866005e+02
2.4169922e+02 8.2657514e+01 -1.6370854e+02
2.5048828e+02 8.3023308e+01 1.7963432e+02
2.5927734e+02 8.2710430e+01 1.5981700e+02
2.6806641e+02 8.1742886e+01 1.4655461e+02
2.7685547e+02 8.1698845e+01 1.3521180e+02
2.8710938e+02 8.1521896e+01 1.1836618e+02
2.9736328e+02 8.0273829e+01 9.8684785e+01
3.0761719e+02 7.9419827e+01 9.7193733e+01
3.1933594e+02 8.1577395e+01 8.4538875e+01
3.2958984e+02 8.2219584e+01 6.3117990e+01
3.4130859e+02 8.2079170e+01 4.1114862e+01
3.5302734e+02 8.1633505e+01 1.9840654e+01
3.6621094e+02 8.1652441e+01 2.9364414e+00
3.7939453e+02 8.1512026e+01 -1.7711076e+01
3.9257813e+02 8.0980178e+01 -4.4110067e+01
4.0576172e+02 8.0626019e+01 -6.0071598e+01
4.2041016e+02 8.0253759e+01 -7.5386668e+01
4.3505859e+02 8.0063955e+01 -1.0303926e+02
4.5117188e+02 8.0609122e+01 -1.1733058e+02
4.6582031e+02 8.0330250e+01 -1.4804392e+02
4.8339844e+02 8.0127318e+01 -1.6635149e+02
4.9951172e+02 7.9649498e+01 1.6603726e+02
5.1708984e+02 7.7908942e+01 1.3942427e+02
5.3613281e+02 7.8959688e+01 1.2026415e+02
5.5517578e+02 8.0626461e+01 8.2441214e+01
5.7421875e+02 8.0342098e+01 4.4543502e+01
5.9472656e+02 7.8406470e+01 5.6613382e+00
6.1523438e+02 7.7142966e+01 -2.6207544e+01
6.3720703e+02 7.6727668e+01 -3.7395416e+01
6.5917969e+02 7.6671591e+01 -7.7547879e+01
6.8261719e+02 7.5659509e+01 -1.0753594e+02
7.0751953e+02 7.6152075e+01 -1.3261236e+02
7.3242188e+02 7.8661713e+01 -1.6925288e+02
7.5732422e+02 7.8044923e+01 1.3933163e+02
7.8515625e+02 7.6918490e+01 9.6046401e+01
8.1152344e+02 7.5797894e+01 6.8745380e+01
8.4082031e+02 7.6409556e+01 1.3698667e+01
8.7011719e+02 7.4059161e+01 -1.9330558e+01
9.0087891e+02 7.4007886e+01 -5.6027471e+01
9.3310547e+02 7.4855927e+01 -9.5594562e+01
9.6533203e+02 7.3211626e+01 -1.5181622e+02
1.0004883e+03 7.3625898e+01 1.6645251e+02
1.0356445e+03 7.0662076e+01 1.2079414e+02
1.0722656e+03 7.1649556e+01 8.4967472e+01
1.1088867e+03 7.1203622e+01 3.9949769e+01
1.1484375e+03 7.1120198e+01 -2.3554406e+01
1.1894531e+03 7.1734513e+01 -8.7698731e+01
1.2304688e+03 6.9698939e+01 -1.3840792e+02
1.2744141e+03 7.1661238e+01 1.7056736e+02
1.3198242e+03 6.9899630e+01 9.8768527e+01
1.3666992e+03 6.9043507e+01 4.2578681e+01
1.4135742e+03 6.9150601e+01 -2.6796867e+01
1.4633789e+03 6.8726223e+01 -9.1864128e+01
1.5161133e+03 6.9576759e+01 -1.6875320e+02
1.5688477e+03 6.7376341e+01 1.1740728e+02
1.6245117e+03 6.5251403e+01 6.6149311e+01
1.6816406e+03 6.5276336e+01 -1.5217262e+01
1.7416992e+03 6.4854633e+01 -9.2760706e+01
1.8032227e+03 6.3584586e+01 -1.6194165e+02
1.8662109e+03 5.9456893e+01 1.2560097e+02
1.9321289e+03 6.4618913e+01 6.1090119e+01
1.9995117e+03 6.8361064e+01 -2.8573191e+01
2.0698242e+03 6.8695236e+01 -1.2840686e+02
2.1430664e+03 6.6403369e+01 1.2806480e+02
2.2192383e+03 6.2411331e+01 3.3748720e+01
2.2968750e+03 6.4552261e+01 -3.1568526e+01
2.3789063e+03 6.5922671e+01 -1.3383434e+02
2.4624023e+03 6.4407052e+01 1.2801054e+02
2.5488281e+03 6.7145216e+01 1.5380259e+01
2.6396484e+03 6.5299737e+01 -1.0377932e+02
2.7319336e+03 6.7782478e+01 1.6909776e+02
2.8286133e+03 6.6713440e+01 3.4680332e+01
2.9282227e+03 6.6633272e+01 -7.8838210e+01
3.0307617e+03 6.5006910e+01 1.5259777e+02
3.1376953e+03 6.5532336e+01 2.0518107e+01
3.2490234e+03 6.4830730e+01 -1.1187861e+02
3.3632813e+03 6.2866540e+01 1.1012933e+02
3.4819336e+03 6.4997634e+01 -2.5282694e+01
3.6049805e+03 6.3921031e+01 -1.6881633e+02
3.7324219e+03 6.3196177e+01 4.2664561e+01
3.8642578e+03 6.3907911e+01 -1.0139961e+02
4.0004883e+03 6.4400762e+01 1.0206302e+02
4.1411133e+03 6.3772569e+01 -6.7706886e+01
4.2875977e+03 6.4182221e+01 1.2181541e+02
4.4384766e+03 6.3269509e+01 -6.3312775e+01
4.5952148e+03 6.2430423e+01 1.2504752e+02
4.7563477e+03 6.3791419e+01 -7.7038615e+01
4.9248047e+03 6.2961604e+01 7.8766939e+01
5.0976563e+03 6.2170200e+01 -1.1405590e+02
5.2778320e+03 6.2008043e+01 1.8374590e+01
5.4638672e+03 5.8666569e+01 1.7042446e+02
5.6572266e+03 5.8127336e+01 -4.5315958e+01
5.8564453e+03 5.8446748e+01 7.8159014e+01
6.0629883e+03 5.8659211e+01 -1.5117222e+02
6.2768555e+03 5.8745892e+01 -5.0910062e+01
6.4980469e+03 5.6531808e+01 4.1376223e+01
6.7265625e+03 5.4395701e+01 1.6145394e+02
6.9638672e+03 5.5551401e+01 -1.2597560e+02
7.2099609e+03 5.3374651e+01 -4.5744635e+01
7.4648438e+03 5.4240034e+01 8.5122381e+00
7.7270508e+03 5.0313481e+01 7.9207986e+01
7.9995117e+03 5.2320195e+01 1.1018599e+02
8.2822266e+03 5.1466710e+01 1.5400891e+02
8.5737305e+03 5.0532377e+01 1.7294885e+02
8.8769531e+03 4.9740874e+01 -1.7041458e+02
9.1889648e+03 4.8998667e+01 -1.6958283e+02
9.5141602e+03 4.8781066e+01 -1.6517881e+02
9.8496094e+03 4.6555999e+01 1.7697638e+02
1.0196777e+04 4.7444543e+01 1.5705944e+02
1.0555664e+04 4.9307373e+01 1.1540011e+02
1.0927734e+04 4.8183076e+01 6.2221170e+01
1.1312988e+04 4.8577705e+01 -5.2692783e+00
1.1712891e+04 4.9266422e+01 -9.0047391e+01
1.2125977e+04 4.8278332e+01 1.6667764e+02
1.2553711e+04 4.7558034e+01 3.7044852e+01
1.2996094e+04 4.7402338e+01 -1.1126022e+02
1.3454590e+04 4.3701955e+01 1.1184737e+02
1.3929199e+04 4.3157738e+01 -3.5591880e+01
1.4419922e+04 4.4302167e+01 1.4893942e+02
1.4928223e+04 4.6240992e+01 -6.9902555e+01
1.5455566e+04 4.4925181e+01 5.2598334e+01
1.6000488e+04 4.2605516e+01 1.6049910e+02
1.6564453e+04 4.0388991e+01 -1.1109401e+02
1.7148926e+04 3.7286960e+01 -1.6698956e+01
1.7752441e+04 3.6023508e+01 4.6967780e+01
1.8379395e+04 3.7421126e+01 9.3823283e+01
1.9026855e+04 3.5959109e+01 9.4943492e+01
1.9697754e+04 2.9484977e+01 6.3009098e+01
1.9999512e+04 3.1389104e+01 7.5850701e+01
