Param_Coord_x1 = 1
Param_Coord_x2 = 80
Param_Coord_x3 = 0
Param_Coord_Type = Spherical
Param_Coord_AngularFormat = degree
Param_Coord_Front = '0,0'
Param_Coord_Top = '90,0'
Data_Domain=Frequency
Data_Phase_AngularFormat=degree
Data_Format = LeveldB_Phase
Data_LevelType=SoundPressure

Curve=[
2.0507813e+01 5.8881142e+01 1.7411382e+02
2.1972656e+01 6.0117151e+01 1.7287730e+02
2.3437500e+01 6.1130972e+01 1.7385566e+02
2.4902344e+01 6.2001921e+01 1.7133822e+02
2.6367188e+01 6.2786820e+01 1.7093048e+02
2.7832031e+01 6.3665390e+01 1.6984387e+02
2.9296875e+01 6.4509080e+01 1.6804941e+02
3.0761719e+01 6.5248466e+01 1.6619160e+02
3.2226563e+01 6.5936586e+01 1.6456273e+02
3.3691406e+01 6.6638751e+01 1.6302492e+02
3.5156250e+01 6.7359607e+01 1.6158014e+02
3.6621094e+01 6.8028842e+01 1.5950115e+02
3.8085938e+01 6.8679785e+01 1.5775669e+02
3.9550781e+01 6.9293474e+01 1.5591266e+02
4.1015625e+01 6.9908140e+01 1.5410441e+02
4.2480469e+01 7.0468259e+01 1.5230067e+02
4.3945313e+01 7.1005649e+01 1.5047004e+02
4.5410156e+01 7.1580288e+01 1.4884986e+02
4.6875000e+01 7.2122514e+01 1.4703246e+02
4.8339844e+01 7.2639533e+01 1.4504458e+02
5.1269531e+01 7.3640785e+01 1.4135267e+02
5.2734375e+01 7.4135300e+01 1.3954386e+02
5.4199219e+01 7.4605574e+01 1.3769172e+02
5.5664063e+01 7.5048071e+01 1.3572471e+02
5.8593750e+01 7.5893280e+01 1.3192286e+02
6.0058594e+01 7.6293765e+01 1.2985489e+02
6.2988281e+01 7.7068891e+01 1.2637038e+02
6.4453125e+01 7.7477582e+01 1.2443150e+02
6.7382813e+01 7.8185770e+01 1.2049094e+02
6.8847656e+01 7.8544562e+01 1.1858644e+02
7.1777344e+01 7.9206504e+01 1.1470747e+02
7.4707031e+01 7.9808678e+01 1.1083878e+02
7.7636719e+01 8.0366450e+01 1.0669122e+02
7.9101563e+01 8.0637667e+01 1.0474762e+02
8.2031250e+01 8.1092920e+01 1.0080672e+02
8.4960938e+01 8.1439743e+01 9.6904867e+01
8.7890625e+01 8.1773057e+01 9.3091981e+01
9.0820313e+01 8.2073980e+01 8.9290967e+01
9.5214844e+01 8.2435896e+01 8.3754377e+01
9.8144531e+01 8.2664862e+01 8.0164038e+01
1.0107422e+02 8.2870083e+01 7.6650836e+01
1.0546875e+02 8.3073750e+01 7.1375270e+01
1.0839844e+02 8.3195631e+01 6.8016081e+01
1.1279297e+02 8.3323018e+01 6.3256924e+01
1.1718750e+02 8.3362480e+01 5.8509061e+01
1.2011719e+02 8.3395025e+01 5.5850623e+01
1.2451172e+02 8.3410267e+01 5.1740322e+01
1.2890625e+02 8.3475368e+01 4.8009698e+01
1.3330078e+02 8.3532649e+01 4.4456966e+01
1.3916016e+02 8.3586615e+01 3.9687407e+01
1.4355469e+02 8.3542718e+01 3.6337236e+01
1.4794922e+02 8.3474862e+01 3.3512949e+01
1.5380859e+02 8.3436484e+01 3.0266081e+01
1.5966797e+02 8.3411481e+01 2.6930645e+01
1.6552734e+02 8.3371300e+01 2.4131550e+01
1.7138672e+02 8.3383648e+01 2.0760180e+01
1.7724609e+02 8.3246373e+01 1.7796123e+01
1.8310547e+02 8.3144911e+01 1.5686222e+01
1.8896484e+02 8.3192269e+01 1.3384750e+01
1.9628906e+02 8.3053071e+01 9.4979468e+00
2.0361328e+02 8.2858343e+01 6.8980362e+00
2.1093750e+02 8.2673250e+01 4.7158723e+00
2.1826172e+02 8.2512852e+01 2.7451098e+00
2.2558594e+02 8.2426740e+01 2.1226487e+00
2.3291016e+02 8.2578194e+01 -8.2325693e-01
2.4169922e+02 8.2305513e+01 -3.4833188e+00
2.5048828e+02 8.2151172e+01 -5.3442926e+00
2.5927734e+02 8.2100214e+01 -7.3114966e+00
2.6806641e+02 8.1905749e+01 -9.4347424e+00
2.7685547e+02 8.1758487e+01 -1.0716646e+01
2.8710938e+02 8.1737392e+01 -1.1651454e+01
2.9736328e+02 8.1757663e+01 -1.4020761e+01
3.0761719e+02 8.1689664e+01 -1.6157908e+01
3.1933594e+02 8.1543782e+01 -1.8746924e+01
3.2958984e+02 8.1514868e+01 -2.0011841e+01
3.4130859e+02 8.1454430e+01 -2.3757891e+01
3.5302734e+02 8.1072570e+01 -2.5192779e+01
3.6621094e+02 8.0899775e+01 -2.6744571e+01
3.7939453e+02 8.0686696e+01 -2.7218052e+01
3.9257813e+02 8.1005067e+01 -2.6812287e+01
4.0576172e+02 8.1036425e+01 -3.1570139e+01
4.2041016e+02 8.0667833e+01 -3.3385488e+01
4.3505859e+02 8.0804804e+01 -3.5767864e+01
4.5117188e+02 8.0191521e+01 -3.9175274e+01
4.6582031e+02 8.0323943e+01 -3.9348110e+01
4.8339844e+02 7.9786430e+01 -4.2315068e+01
4.9951172e+02 8.0128689e+01 -4.3933601e+01
5.1708984e+02 7.9817963e+01 -5.0098830e+01
5.3613281e+02 7.9153142e+01 -5.1739032e+01
5.5517578e+02 7.8812094e+01 -5.2423549e+01
5.7421875e+02 7.8572697e+01 -5.5339552e+01
5.9472656e+02 7.8596234e+01 -5.5062995e+01
6.1523438e+02 7.8331464e+01 -5.9602916e+01
6.3720703e+02 7.7978946e+01 -6.1130942e+01
6.5917969e+02 7.7582504e+01 -6.5345644e+01
6.8261719e+02 7.7037114e+01 -6.7006636e+01
7.0751953e+02 7.6546934e+01 -7.0675378e+01
7.3242188e+02 7.5776830e+01 -6.8294797e+01
7.5732422e+02 7.5779609e+01 -7.0655069e+01
7.8515625e+02 7.6125479e+01 -7.3511356e+01
8.1152344e+02 7.5163660e+01 -7.6132733e+01
8.4082031e+02 7.5418080e+01 -8.4730806e+01
8.7011719e+02 7.4223140e+01 -8.2049002e+01
9.0087891e+02 7.3971348e+01 -8.5085853e+01
9.3310547e+02 7.3706835e+01 -1.0158776e+02
9.6533203e+02 7.0719449e+01 -9.4240072e+01
1.0004883e+03 7.1003852e+01 -9.5300308e+01
1.0356445e+03 7.0871538e+01 -8.9414203e+01
1.0722656e+03 7.2133817e+01 -1.0775097e+02
1.1088867e+03 7.0086569e+01 -1.1955877e+02
1.1484375e+03 6.8629785e+01 -1.2918431e+02
1.1894531e+03 6.8439992e+01 -1.3075044e+02
1.2304688e+03 6.6317324e+01 -1.4969593e+02
1.2744141e+03 6.6291940e+01 -1.6121995e+02
1.3198242e+03 6.1680389e+01 1.7032920e+02
1.3666992e+03 6.3697648e+01 -1.6768535e+02
1.4135742e+03 6.6234713e+01 1.6467442e+02
1.4633789e+03 6.6699820e+01 1.3849892e+02
1.5161133e+03 6.7101657e+01 1.1803008e+02
1.5688477e+03 6.8712755e+01 9.9704817e+01
1.6245117e+03 6.8923670e+01 8.7703046e+01
1.6816406e+03 6.8382279e+01 7.7079694e+01
1.7416992e+03 6.9760346e+01 8.6213706e+01
1.8032227e+03 7.1293457e+01 7.3764261e+01
1.8662109e+03 7.2109203e+01 6.2489110e+01
1.9321289e+03 7.3177621e+01 5.3641493e+01
1.9995117e+03 7.3925417e+01 3.7515370e+01
2.0698242e+03 7.1803507e+01 2.1940186e+01
2.1430664e+03 6.9654023e+01 3.8250647e+01
2.2192383e+03 7.1799277e+01 3.0875634e+01
2.2968750e+03 6.9370697e+01 2.8021890e+01
2.3789063e+03 7.0292708e+01 3.3714943e+01
2.4624023e+03 7.0637682e+01 2.7469445e+01
2.5488281e+03 6.9302696e+01 3.6597367e+01
2.6396484e+03 7.0109266e+01 3.3423568e+01
2.7319336e+03 6.9725147e+01 4.6229751e+01
2.8286133e+03 7.0498378e+01 4.5291454e+01
2.9282227e+03 7.0139859e+01 2.7108187e+01
3.0307617e+03 6.9683101e+01 5.3019786e+01
3.1376953e+03 7.2270960e+01 4.4956534e+01
3.2490234e+03 7.0763674e+01 3.3655342e+01
3.3632813e+03 7.4890220e+01 5.6848726e+01
3.4819336e+03 7.6488749e+01 2.8660458e+01
3.6049805e+03 7.4251908e+01 2.5998904e+01
3.7324219e+03 7.7676880e+01 2.7583693e+01
3.8642578e+03 7.6601441e+01 2.4706209e+00
4.0004883e+03 7.5478919e+01 1.2095813e+01
4.1411133e+03 7.5274547e+01 7.9585385e+00
4.2875977e+03 7.6438436e+01 3.2085926e+00
4.4384766e+03 7.5602523e+01 3.1424350e+00
4.5952148e+03 7.6488360e+01 1.4700466e+00
4.7563477e+03 7.6605692e+01 -6.6041762e+00
4.9248047e+03 7.5936909e+01 -9.8678278e+00
5.0976563e+03 7.7619514e+01 -1.1471631e+01
5.2778320e+03 7.6527080e+01 -2.0926028e+01
5.4638672e+03 7.7186647e+01 -2.7880029e+01
5.6572266e+03 7.6783607e+01 -3.2012169e+01
5.8564453e+03 7.6381817e+01 -3.8819324e+01
6.0629883e+03 7.6217063e+01 -3.8760073e+01
6.2768555e+03 7.6129756e+01 -5.8658975e+01
6.4980469e+03 7.6607804e+01 -5.9253722e+01
6.7265625e+03 7.4333205e+01 -8.0469325e+01
6.9638672e+03 7.4022671e+01 -9.2657033e+01
7.2099609e+03 6.7809480e+01 -9.8619915e+01
7.4648438e+03 6.6450859e+01 -8.7197350e+01
7.7270508e+03 6.8335959e+01 -7.1927508e+01
7.9995117e+03 6.7791128e+01 -8.0414175e+01
8.2822266e+03 6.7348525e+01 -8.9596236e+01
8.5737305e+03 6.5262557e+01 -8.5161915e+01
8.8769531e+03 6.4429084e+01 -7.7576269e+01
9.1889648e+03 6.5911507e+01 -8.0842057e+01
9.5141602e+03 6.6084771e+01 -8.9335762e+01
9.8496094e+03 6.4249482e+01 -9.3298782e+01
1.0196777e+04 6.2439744e+01 -9.2498684e+01
1.0555664e+04 6.1405076e+01 -9.0837088e+01
1.0927734e+04 6.0246624e+01 -8.6428839e+01
1.1312988e+04 5.8092142e+01 -6.7074879e+01
1.1712891e+04 6.0896680e+01 -4.4768834e+01
1.2125977e+04 6.3648549e+01 -4.6343111e+01
1.2553711e+04 6.5431968e+01 -5.1418141e+01
1.2996094e+04 6.7066657e+01 -6.3981444e+01
1.3454590e+04 6.7036351e+01 -8.0311138e+01
1.3929199e+04 6.6382597e+01 -9.1848435e+01
1.4419922e+04 6.6521886e+01 -1.0056395e+02
1.4928223e+04 6.6192379e+01 -1.1038421e+02
1.5455566e+04 6.7739789e+01 -1.2334195e+02
1.6000488e+04 6.7283436e+01 -1.4731365e+02
1.6564453e+04 6.7154525e+01 -1.7032953e+02
1.7148926e+04 6.3939199e+01 1.6261719e+02
1.7752441e+04 6.1120245e+01 1.4509863e+02
1.8379395e+04 5.7473799e+01 1.1127734e+02
1.9026855e+04 5.2003878e+01 7.6856591e+01
1.9697754e+04 4.7166692e+01 8.6124596e+00
1.9999512e+04 4.7536584e+01 -3.9996274e+01
];
