Param_Coord_x1 = 1
Param_Coord_x2 = 260
Param_Coord_x3 = 90
Param_Coord_Type = Spherical
Param_Coord_AngularFormat = degree
Param_Coord_Front = '0,0'
Param_Coord_Top = '90,0'
Data_Domain=Frequency
Data_Phase_AngularFormat=degree
Data_Format = LeveldB_Phase
Data_LevelType=SoundPressure

Curve=[
2.0507813e+01 5.8111582e+01 1.7148133e+02
2.1972656e+01 5.9285688e+01 1.7093522e+02
2.3437500e+01 6.0355094e+01 1.6964274e+02
2.4902344e+01 6.1028859e+01 1.6883841e+02
2.6367188e+01 6.1959793e+01 1.6853284e+02
2.7832031e+01 6.2856221e+01 1.6708171e+02
2.9296875e+01 6.3680718e+01 1.6502795e+02
3.0761719e+01 6.4433292e+01 1.6303977e+02
3.2226563e+01 6.5045235e+01 1.6145307e+02
3.3691406e+01 6.5861057e+01 1.6036690e+02
3.5156250e+01 6.6603219e+01 1.5851217e+02
3.6621094e+01 6.7301106e+01 1.5606117e+02
3.8085938e+01 6.7945567e+01 1.5397615e+02
3.9550781e+01 6.8529644e+01 1.5172464e+02
4.1015625e+01 6.9131122e+01 1.5019095e+02
4.2480469e+01 6.9705729e+01 1.4814733e+02
4.3945313e+01 7.0251577e+01 1.4621400e+02
4.5410156e+01 7.0815518e+01 1.4448469e+02
4.6875000e+01 7.1389211e+01 1.4231276e+02
4.8339844e+01 7.1898325e+01 1.4017940e+02
5.1269531e+01 7.2880103e+01 1.3620370e+02
5.2734375e+01 7.3376440e+01 1.3426521e+02
5.4199219e+01 7.3846791e+01 1.3225043e+02
5.5664063e+01 7.4275655e+01 1.3011159e+02
5.8593750e+01 7.5081055e+01 1.2605646e+02
6.0058594e+01 7.5495872e+01 1.2425472e+02
6.2988281e+01 7.6328290e+01 1.1987412e+02
6.4453125e+01 7.6678159e+01 1.1773567e+02
6.7382813e+01 7.7354233e+01 1.1416168e+02
6.8847656e+01 7.7749399e+01 1.1220703e+02
7.1777344e+01 7.8453069e+01 1.0806553e+02
7.4707031e+01 7.9093542e+01 1.0357750e+02
7.7636719e+01 7.9611827e+01 9.9118543e+01
7.9101563e+01 7.9883011e+01 9.7090903e+01
8.2031250e+01 8.0358076e+01 9.2929450e+01
8.4960938e+01 8.0718285e+01 8.8700704e+01
8.7890625e+01 8.1058066e+01 8.4473639e+01
9.0820313e+01 8.1364556e+01 8.0332325e+01
9.5214844e+01 8.1729472e+01 7.4257334e+01
9.8144531e+01 8.1956988e+01 7.0234029e+01
1.0107422e+02 8.2141011e+01 6.6359476e+01
1.0546875e+02 8.2332361e+01 6.0648101e+01
1.0839844e+02 8.2434198e+01 5.7008563e+01
1.1279297e+02 8.2560242e+01 5.2010969e+01
1.1718750e+02 8.2605625e+01 4.6840912e+01
1.2011719e+02 8.2644395e+01 4.3921405e+01
1.2451172e+02 8.2671984e+01 3.9508165e+01
1.2890625e+02 8.2756017e+01 3.5242026e+01
1.3330078e+02 8.2810239e+01 3.1247574e+01
1.3916016e+02 8.2889827e+01 2.5941711e+01
1.4355469e+02 8.2864177e+01 2.2012723e+01
1.4794922e+02 8.2791083e+01 1.8583240e+01
1.5380859e+02 8.2752569e+01 1.4788159e+01
1.5966797e+02 8.2743765e+01 1.0591556e+01
1.6552734e+02 8.2638851e+01 7.0851172e+00
1.7138672e+02 8.2685939e+01 3.5165905e+00
1.7724609e+02 8.2583763e+01 -4.9485358e-01
1.8310547e+02 8.2430037e+01 -3.6707300e+00
1.8896484e+02 8.2352572e+01 -6.3697747e+00
1.9628906e+02 8.2254197e+01 -1.0306580e+01
2.0361328e+02 8.2054546e+01 -1.3736690e+01
2.1093750e+02 8.1894850e+01 -1.6569159e+01
2.1826172e+02 8.1740216e+01 -1.9550959e+01
2.2558594e+02 8.1482141e+01 -2.1014380e+01
2.3291016e+02 8.1722291e+01 -2.2997139e+01
2.4169922e+02 8.1509213e+01 -2.7129429e+01
2.5048828e+02 8.1461019e+01 -2.9605299e+01
2.5927734e+02 8.1440367e+01 -3.2869561e+01
2.6806641e+02 8.1282075e+01 -3.6748080e+01
2.7685547e+02 8.1005861e+01 -3.9403921e+01
2.8710938e+02 8.0803125e+01 -4.0963723e+01
2.9736328e+02 8.0797590e+01 -4.3084667e+01
3.0761719e+02 8.0882474e+01 -4.5298574e+01
3.1933594e+02 8.0779231e+01 -5.0789366e+01
3.2958984e+02 8.0658710e+01 -5.2486064e+01
3.4130859e+02 8.0637224e+01 -5.6600950e+01
3.5302734e+02 8.0280424e+01 -6.0514554e+01
3.6621094e+02 7.9950005e+01 -6.2362202e+01
3.7939453e+02 7.9817758e+01 -6.5109220e+01
3.9257813e+02 7.9588384e+01 -6.3519555e+01
4.0576172e+02 8.0207678e+01 -6.7918785e+01
4.2041016e+02 7.9819216e+01 -7.3721022e+01
4.3505859e+02 7.9594720e+01 -7.4735688e+01
4.5117188e+02 7.9233868e+01 -8.1186168e+01
4.6582031e+02 7.9200523e+01 -7.9427815e+01
4.8339844e+02 7.8680008e+01 -8.6234783e+01
4.9951172e+02 7.8681635e+01 -8.5075114e+01
5.1708984e+02 7.8888629e+01 -8.8659406e+01
5.3613281e+02 7.8646848e+01 -9.2355366e+01
5.5517578e+02 7.8420723e+01 -9.5584903e+01
5.7421875e+02 7.8361958e+01 -9.6970274e+01
5.9472656e+02 7.8778612e+01 -1.0065884e+02
6.1523438e+02 7.8412409e+01 -1.0380580e+02
6.3720703e+02 7.8437091e+01 -1.0391516e+02
6.5917969e+02 7.8812650e+01 -1.1237122e+02
6.8261719e+02 7.8234878e+01 -1.1417620e+02
7.0751953e+02 7.8064068e+01 -1.1748328e+02
7.3242188e+02 7.8865810e+01 -1.1475574e+02
7.5732422e+02 7.8655546e+01 -1.2791218e+02
7.8515625e+02 7.8918202e+01 -1.2652615e+02
8.1152344e+02 7.8797042e+01 -1.3107590e+02
8.4082031e+02 7.9716451e+01 -1.3906326e+02
8.7011719e+02 7.9177212e+01 -1.3930433e+02
9.0087891e+02 8.0167557e+01 -1.4752587e+02
9.3310547e+02 8.0739398e+01 -1.5921574e+02
9.6533203e+02 8.0078357e+01 -1.6919163e+02
1.0004883e+03 7.9779755e+01 -1.7407976e+02
1.0356445e+03 7.9406408e+01 1.7664744e+02
1.0722656e+03 7.9311469e+01 1.7314734e+02
1.1088867e+03 7.9269314e+01 1.6467623e+02
1.1484375e+03 7.9193466e+01 1.5852455e+02
1.1894531e+03 7.8854978e+01 1.4856516e+02
1.2304688e+03 7.8980359e+01 1.4127141e+02
1.2744141e+03 7.8082739e+01 1.3185995e+02
1.3198242e+03 7.7381966e+01 1.2530443e+02
1.3666992e+03 7.6984750e+01 1.2263818e+02
1.4135742e+03 7.7141293e+01 1.1864125e+02
1.4633789e+03 7.6954595e+01 1.1228633e+02
1.5161133e+03 7.6350815e+01 1.0599591e+02
1.5688477e+03 7.6840110e+01 1.0026732e+02
1.6245117e+03 7.6587125e+01 1.0051246e+02
1.6816406e+03 7.7019898e+01 9.0586958e+01
1.7416992e+03 7.7476107e+01 8.1162701e+01
1.8032227e+03 7.6836062e+01 6.8048632e+01
1.8662109e+03 7.5534727e+01 6.3012195e+01
1.9321289e+03 7.5802751e+01 6.6144522e+01
1.9995117e+03 7.6361499e+01 5.7339052e+01
2.0698242e+03 7.5729768e+01 4.2583021e+01
2.1430664e+03 7.4096556e+01 3.7399301e+01
2.2192383e+03 7.3718473e+01 3.8982330e+01
2.2968750e+03 7.3113686e+01 2.8792255e+01
2.3789063e+03 7.1746268e+01 2.9112826e+01
2.4624023e+03 7.2513593e+01 2.7263789e+01
2.5488281e+03 7.0776117e+01 8.1531733e+00
2.6396484e+03 6.8562912e+01 3.2004745e+01
2.7319336e+03 6.9244706e+01 2.3821645e+01
2.8286133e+03 6.9307812e+01 3.3951996e+01
2.9282227e+03 6.8910085e+01 3.3343094e+01
3.0307617e+03 6.9521465e+01 3.7572240e+01
3.1376953e+03 7.1123648e+01 3.6901719e+01
3.2490234e+03 7.2455080e+01 2.7289816e+01
3.3632813e+03 7.2634783e+01 2.0016369e+01
3.4819336e+03 7.2691659e+01 1.6219130e+01
3.6049805e+03 7.3823754e+01 1.4473067e+01
3.7324219e+03 7.4514936e+01 5.6426059e+00
3.8642578e+03 7.4969506e+01 -5.1065852e+00
4.0004883e+03 7.4119588e+01 -1.6427279e+01
4.1411133e+03 7.3079341e+01 -1.8586977e+01
4.2875977e+03 7.1981338e+01 -9.5943626e+00
4.4384766e+03 7.4412840e+01 -1.5405272e+01
4.5952148e+03 7.4119705e+01 -2.1681653e+01
4.7563477e+03 7.3824188e+01 -2.9514455e+01
4.9248047e+03 7.4187006e+01 -2.6281527e+01
5.0976563e+03 7.5498612e+01 -3.6056807e+01
5.2778320e+03 7.4728172e+01 -4.7458260e+01
5.4638672e+03 7.5185023e+01 -4.8493859e+01
5.6572266e+03 7.5019984e+01 -6.1771876e+01
5.8564453e+03 7.4792629e+01 -6.9106454e+01
6.0629883e+03 7.4015265e+01 -8.0796562e+01
6.2768555e+03 7.3069412e+01 -8.6784102e+01
6.4980469e+03 7.2388970e+01 -1.0006746e+02
6.7265625e+03 7.1175830e+01 -1.0524819e+02
6.9638672e+03 6.9658237e+01 -1.1445545e+02
7.2099609e+03 6.8436089e+01 -1.2781537e+02
7.4648438e+03 6.4959490e+01 -1.2566944e+02
7.7270508e+03 6.2398724e+01 -1.3081640e+02
7.9995117e+03 6.1746672e+01 -1.1204841e+02
8.2822266e+03 6.1483660e+01 -1.1000844e+02
8.5737305e+03 6.1685514e+01 -1.1089021e+02
8.8769531e+03 6.0254021e+01 -1.1634275e+02
9.1889648e+03 6.0165611e+01 -1.0241176e+02
9.5141602e+03 6.0614324e+01 -9.8469756e+01
9.8496094e+03 6.1352232e+01 -1.0333345e+02
1.0196777e+04 6.1593262e+01 -1.0503566e+02
1.0555664e+04 6.1341319e+01 -1.0404713e+02
1.0927734e+04 6.2080777e+01 -1.0596190e+02
1.1312988e+04 6.2637317e+01 -1.1547421e+02
1.1712891e+04 6.1629900e+01 -1.2274172e+02
1.2125977e+04 6.0936372e+01 -1.1942350e+02
1.2553711e+04 6.0796558e+01 -1.2783192e+02
1.2996094e+04 5.9224175e+01 -1.3469669e+02
1.3454590e+04 5.8432601e+01 -1.1736796e+02
1.3929199e+04 6.2135548e+01 -1.1652298e+02
1.4419922e+04 6.3020030e+01 -1.4067178e+02
1.4928223e+04 6.3008447e+01 -1.5461547e+02
1.5455566e+04 6.3342996e+01 -1.7370050e+02
1.6000488e+04 6.2199812e+01 1.6397906e+02
1.6564453e+04 6.0311739e+01 1.4405322e+02
1.7148926e+04 5.7012992e+01 1.2949770e+02
1.7752441e+04 5.2304047e+01 1.0249666e+02
1.8379395e+04 3.8453566e+01 -1.3839401e+02
1.9026855e+04 5.3050510e+01 -1.6628147e+02
1.9697754e+04 5.3893889e+01 1.5672834e+02
1.9999512e+04 5.2341393e+01 1.4683565e+02
];
