Param_Coord_x1 = 1
Param_Coord_x2 = 130
Param_Coord_x3 = 0
Param_Coord_Type = Spherical
Param_Coord_AngularFormat = degree
Param_Coord_Front = '0,0'
Param_Coord_Top = '90,0'
Data_Domain=Frequency
Data_Phase_AngularFormat=degree
Data_Format = LeveldB_Phase
Data_LevelType=SoundPressure

Curve=[
2.0507813e+01 4.0069120e+01 -6.2155200e+01 
2.1972656e+01 4.5205086e+01 -5.4730405e+01 
2.3437500e+01 4.7418356e+01 -5.3236512e+01 
2.4902344e+01 5.0429109e+01 -6.5844605e+01 
2.6367188e+01 5.2963030e+01 -6.8523568e+01 
2.7832031e+01 5.5221080e+01 -7.9117141e+01 
2.9296875e+01 5.7061902e+01 -8.6803587e+01 
3.0761719e+01 5.8776639e+01 -9.4557260e+01 
3.2226563e+01 6.0458938e+01 -1.0410431e+02 
3.3691406e+01 6.1947323e+01 -1.1372816e+02 
3.5156250e+01 6.3014639e+01 -1.2125649e+02 
3.6621094e+01 6.4133202e+01 -1.2868156e+02 
3.8085938e+01 6.5174229e+01 -1.3578513e+02 
3.9550781e+01 6.6133819e+01 -1.4320359e+02 
4.1015625e+01 6.6940520e+01 -1.5073571e+02 
4.2480469e+01 6.7622311e+01 -1.5736371e+02 
4.3945313e+01 6.8230966e+01 -1.6348133e+02 
4.5410156e+01 6.8773782e+01 -1.6911951e+02 
4.6875000e+01 6.9265647e+01 -1.7431106e+02 
4.8339844e+01 6.9742406e+01 -1.7917816e+02 
5.1269531e+01 7.0619126e+01 1.7176821e+02 
5.2734375e+01 7.1030948e+01 1.6753994e+02 
5.4199219e+01 7.1410236e+01 1.6358248e+02 
5.5664063e+01 7.1658525e+01 1.5932250e+02 
5.8593750e+01 7.2313249e+01 1.5267274e+02 
6.0058594e+01 7.2663701e+01 1.4929871e+02 
6.2988281e+01 7.3254345e+01 1.4356967e+02 
6.4453125e+01 7.3557776e+01 1.4094876e+02 
6.7382813e+01 7.4135785e+01 1.3546157e+02 
6.8847656e+01 7.4396835e+01 1.3238635e+02 
7.1777344e+01 7.4988694e+01 1.2635523e+02 
7.4707031e+01 7.5511551e+01 1.2147425e+02 
7.7636719e+01 7.5897693e+01 1.1650849e+02 
7.9101563e+01 7.6095909e+01 1.1337033e+02 
8.2031250e+01 7.6596075e+01 1.0773342e+02 
8.4960938e+01 7.7010567e+01 1.0316015e+02 
8.7890625e+01 7.7250960e+01 9.8012904e+01 
9.0820313e+01 7.7559330e+01 9.2489700e+01 
9.5214844e+01 7.8010803e+01 8.5928933e+01 
9.8144531e+01 7.8196727e+01 8.1026046e+01 
1.0107422e+02 7.8433544e+01 7.6121845e+01 
1.0546875e+02 7.8712246e+01 6.9312805e+01 
1.0839844e+02 7.8824452e+01 6.4859700e+01 
1.1279297e+02 7.9016965e+01 5.8136686e+01 
1.1718750e+02 7.9230441e+01 5.2035289e+01 
1.2011719e+02 7.9250736e+01 4.7315242e+01 
1.2451172e+02 7.9267162e+01 4.2152895e+01 
1.2890625e+02 7.9274301e+01 3.6655186e+01 
1.3330078e+02 7.9260200e+01 3.2101895e+01 
1.3916016e+02 7.9294298e+01 2.5946179e+01 
1.4355469e+02 7.9276723e+01 2.1187001e+01 
1.4794922e+02 7.9183773e+01 1.6715236e+01 
1.5380859e+02 7.9032534e+01 1.1774908e+01 
1.5966797e+02 7.8980868e+01 7.0064392e+00 
1.6552734e+02 7.8815335e+01 2.2329644e+00 
1.7138672e+02 7.8758915e+01 -1.2657482e+00 
1.7724609e+02 7.8728682e+01 -6.0868983e+00 
1.8310547e+02 7.8537960e+01 -1.0461035e+01 
1.8896484e+02 7.8308266e+01 -1.3658843e+01 
1.9628906e+02 7.8315679e+01 -1.7525488e+01 
2.0361328e+02 7.8186378e+01 -2.2781495e+01 
2.1093750e+02 7.7922578e+01 -2.7114213e+01 
2.1826172e+02 7.7661122e+01 -3.0967646e+01 
2.2558594e+02 7.7300278e+01 -3.4348339e+01 
2.3291016e+02 7.7177302e+01 -3.5481559e+01 
2.4169922e+02 7.7147184e+01 -4.0159399e+01 
2.5048828e+02 7.6909951e+01 -4.3887093e+01 
2.5927734e+02 7.6752458e+01 -4.6578487e+01 
2.6806641e+02 7.6698411e+01 -5.0337360e+01 
2.7685547e+02 7.6508640e+01 -5.4219942e+01 
2.8710938e+02 7.6129039e+01 -5.7743513e+01 
2.9736328e+02 7.5984334e+01 -6.0046755e+01 
3.0761719e+02 7.5805626e+01 -6.2781902e+01 
3.1933594e+02 7.5913728e+01 -6.5593396e+01 
3.2958984e+02 7.5847907e+01 -6.9567034e+01 
3.4130859e+02 7.5877667e+01 -7.3567936e+01 
3.5302734e+02 7.5727244e+01 -7.8807054e+01 
3.6621094e+02 7.5347286e+01 -8.3170911e+01 
3.7939453e+02 7.5003072e+01 -8.5841039e+01 
3.9257813e+02 7.4786013e+01 -8.9101093e+01 
4.0576172e+02 7.4692695e+01 -8.9887560e+01 
4.2041016e+02 7.4827221e+01 -9.5066455e+01 
4.3505859e+02 7.4360237e+01 -9.8534738e+01 
4.5117188e+02 7.4668143e+01 -1.0029113e+02 
4.6582031e+02 7.4427052e+01 -1.0697599e+02 
4.8339844e+02 7.4565908e+01 -1.0932759e+02 
4.9951172e+02 7.4222322e+01 -1.1478860e+02 
5.1708984e+02 7.4799648e+01 -1.1690752e+02 
5.3613281e+02 7.5035098e+01 -1.2931810e+02 
5.5517578e+02 7.4292923e+01 -1.3737781e+02 
5.7421875e+02 7.3684217e+01 -1.4226888e+02 
5.9472656e+02 7.3097207e+01 -1.4816950e+02 
6.1523438e+02 7.2488398e+01 -1.5364049e+02 
6.3720703e+02 7.2231704e+01 -1.5557585e+02 
6.5917969e+02 7.1896865e+01 -1.6073777e+02 
6.8261719e+02 7.1439692e+01 -1.6894543e+02 
7.0751953e+02 7.0314275e+01 -1.7240587e+02 
7.3242188e+02 6.9662158e+01 -1.7599765e+02 
7.5732422e+02 6.8723302e+01 -1.7126194e+02 
7.8515625e+02 6.9325125e+01 -1.7372827e+02 
8.1152344e+02 6.9866131e+01 -1.7139011e+02 
8.4082031e+02 7.1032845e+01 -1.7787514e+02 
8.7011719e+02 6.9881333e+01 1.7288761e+02 
9.0087891e+02 6.9441082e+01 1.7094508e+02 
9.3310547e+02 6.8974039e+01 1.7539913e+02 
9.6533203e+02 6.9946224e+01 1.7290320e+02 
1.0004883e+03 7.1278086e+01 1.6401708e+02 
1.0356445e+03 7.1731359e+01 1.5249839e+02 
1.0722656e+03 7.0895760e+01 1.4016488e+02 
1.1088867e+03 7.1188690e+01 1.4308696e+02 
1.1484375e+03 7.2285137e+01 1.2743060e+02 
1.1894531e+03 7.2545690e+01 1.2545497e+02 
1.2304688e+03 7.2872160e+01 1.0808526e+02 
1.2744141e+03 7.3695499e+01 9.5839001e+01 
1.3198242e+03 7.2630210e+01 8.4120042e+01 
1.3666992e+03 7.2591702e+01 6.9187805e+01 
1.4135742e+03 7.2709371e+01 5.4076581e+01 
1.4633789e+03 7.0877230e+01 3.7025348e+01 
1.5161133e+03 6.8914571e+01 3.3381463e+01 
1.5688477e+03 6.9131105e+01 3.4590699e+01 
1.6245117e+03 7.0630305e+01 2.1452998e+01 
1.6816406e+03 7.0317713e+01 -4.2055993e+00 
1.7416992e+03 6.8163111e+01 -3.1225984e+01 
1.8032227e+03 6.2713751e+01 -4.4596156e+01 
1.8662109e+03 6.0636559e+01 -2.3384755e-01 
1.9321289e+03 6.6094343e+01 -1.0338373e+01 
1.9995117e+03 6.7614687e+01 -5.4780180e+01 
2.0698242e+03 6.5773208e+01 -8.8486405e+01 
2.1430664e+03 6.4694047e+01 -1.2388507e+02 
2.2192383e+03 6.1263222e+01 -1.5977630e+02 
2.2968750e+03 5.5172502e+01 1.6363084e+02 
2.3789063e+03 6.0712951e+01 -1.6711646e+02 
2.4624023e+03 6.2899050e+01 1.4874111e+02 
2.5488281e+03 6.2681188e+01 1.2870189e+02 
2.6396484e+03 6.3654162e+01 1.0892046e+02 
2.7319336e+03 6.2168370e+01 9.3297362e+01 
2.8286133e+03 6.3315759e+01 8.9319670e+01 
2.9282227e+03 6.6792579e+01 6.8394093e+01 
3.0307617e+03 6.5487756e+01 4.4129100e+01 
3.1376953e+03 6.4395899e+01 4.3629717e+01 
3.2490234e+03 6.6143850e+01 3.3683094e+01 
3.3632813e+03 6.7401251e+01 1.4624112e+01 
3.4819336e+03 6.6041854e+01 5.9916885e-01 
3.6049805e+03 6.6157935e+01 -1.3835856e+01 
3.7324219e+03 6.6126040e+01 -2.8518931e+01 
3.8642578e+03 6.4993247e+01 -3.2249995e+01 
4.0004883e+03 6.4502858e+01 -5.1445246e+01 
4.1411133e+03 6.2836161e+01 -6.4289765e+01 
4.2875977e+03 5.9100540e+01 -7.6983162e+01 
4.4384766e+03 5.8077621e+01 -7.1068811e+01 
4.5952148e+03 5.3882771e+01 -4.4108419e+01 
4.7563477e+03 5.9024041e+01 -4.2093781e+01 
4.9248047e+03 5.9196780e+01 -5.1738803e+01 
5.0976563e+03 5.9289962e+01 -6.4440557e+01 
5.2778320e+03 5.9215962e+01 -7.1627280e+01 
5.4638672e+03 5.7412556e+01 -7.0699629e+01 
5.6572266e+03 5.7081731e+01 -7.8007036e+01 
5.8564453e+03 5.7667312e+01 -7.1376483e+01 
6.0629883e+03 5.8230439e+01 -7.5505371e+01 
6.2768555e+03 5.9413979e+01 -9.0736877e+01 
6.4980469e+03 5.7585416e+01 -1.1413615e+02 
6.7265625e+03 5.3291668e+01 -1.0283344e+02 
6.9638672e+03 5.7101829e+01 -8.1749828e+01 
7.2099609e+03 5.9354121e+01 -1.1644698e+02 
7.4648438e+03 5.7494142e+01 -1.4389989e+02 
7.7270508e+03 5.3264317e+01 -1.5413671e+02 
7.9995117e+03 5.2446764e+01 -1.5099961e+02 
8.2822266e+03 5.0251000e+01 -1.2495453e+02 
8.5737305e+03 5.3280150e+01 -1.2834304e+02 
8.8769531e+03 5.4875887e+01 -1.4522775e+02 
9.1889648e+03 5.4544246e+01 -1.5995353e+02 
9.5141602e+03 5.4110810e+01 -1.7492297e+02 
9.8496094e+03 5.2536638e+01 1.7568888e+02 
1.0196777e+04 5.0764933e+01 1.6432435e+02 
1.0555664e+04 4.8583433e+01 1.6054395e+02 
1.0927734e+04 4.6451362e+01 1.6703345e+02 
1.1312988e+04 4.6427589e+01 1.6945798e+02 
1.1712891e+04 4.6057535e+01 1.6844352e+02 
1.2125977e+04 4.5230285e+01 1.6893860e+02 
1.2553711e+04 4.4370216e+01 1.6326587e+02 
1.2996094e+04 4.3790918e+01 1.6285266e+02 
1.3454590e+04 4.1692507e+01 1.7053700e+02 
1.3929199e+04 4.5594385e+01 1.7285043e+02 
1.4419922e+04 4.6543398e+01 1.5619727e+02 
1.4928223e+04 4.6504111e+01 1.3251218e+02 
1.5455566e+04 4.5064000e+01 1.0986968e+02 
1.6000488e+04 4.2999400e+01 9.6396393e+01 
1.6564453e+04 4.1100001e+01 7.5012843e+01 
1.7148926e+04 3.7356243e+01 5.8511620e+01 
1.7752441e+04 3.0408293e+01 5.1281537e+01 
1.8379395e+04 3.0307615e+01 9.4025388e+01 
1.9026855e+04 3.1081572e+01 9.0096423e+01 
1.9697754e+04 2.8765164e+01 5.6451866e+01 
1.9999512e+04 3.7849276e+01 -1.1913818e+02 
];
