Param_Coord_x1 = 1
Param_Coord_x2 = 230
Param_Coord_x3 = 0
Param_Coord_Type = Spherical
Param_Coord_AngularFormat = degree
Param_Coord_Front = '0,0'
Param_Coord_Top = '90,0'
Data_Domain=Frequency
Data_Phase_AngularFormat=degree
Data_Format = LeveldB_Phase
Data_LevelType=SoundPressure

Curve=[
2.0507813e+01 4.7278349e+01 -2.6687554e+01
2.1972656e+01 5.1010500e+01 -2.7965510e+01
2.3437500e+01 5.3088994e+01 -2.7510546e+01
2.4902344e+01 5.5405684e+01 -3.7697690e+01
2.6367188e+01 5.7712654e+01 -4.5088622e+01
2.7832031e+01 5.9464494e+01 -5.6138943e+01
2.9296875e+01 6.0999849e+01 -6.4532563e+01
3.0761719e+01 6.2435317e+01 -7.3157873e+01
3.2226563e+01 6.3857302e+01 -8.3665645e+01
3.3691406e+01 6.5070083e+01 -9.3834013e+01
3.5156250e+01 6.6011840e+01 -1.0130327e+02
3.6621094e+01 6.7020402e+01 -1.0918493e+02
3.8085938e+01 6.7970772e+01 -1.1669180e+02
3.9550781e+01 6.8830612e+01 -1.2452276e+02
4.1015625e+01 6.9556586e+01 -1.3241580e+02
4.2480469e+01 7.0156401e+01 -1.3930935e+02
4.3945313e+01 7.0693434e+01 -1.4563812e+02
4.5410156e+01 7.1164946e+01 -1.5140556e+02
4.6875000e+01 7.1599520e+01 -1.5666007e+02
4.8339844e+01 7.2024532e+01 -1.6157689e+02
5.1269531e+01 7.2815311e+01 -1.7066754e+02
5.2734375e+01 7.3192372e+01 -1.7491489e+02
5.4199219e+01 7.3540236e+01 -1.7885445e+02
5.5664063e+01 7.3724324e+01 1.7690635e+02
5.8593750e+01 7.4328655e+01 1.7037644e+02
6.0058594e+01 7.4652856e+01 1.6711978e+02
6.2988281e+01 7.5204935e+01 1.6148233e+02
6.4453125e+01 7.5486788e+01 1.5891109e+02
6.7382813e+01 7.6011633e+01 1.5367240e+02
6.8847656e+01 7.6252033e+01 1.5076278e+02
7.1777344e+01 7.6810492e+01 1.4504089e+02
7.4707031e+01 7.7295624e+01 1.4041932e+02
7.7636719e+01 7.7640975e+01 1.3589554e+02
7.9101563e+01 7.7824610e+01 1.3295819e+02
8.2031250e+01 7.8301855e+01 1.2772218e+02
8.4960938e+01 7.8700581e+01 1.2356611e+02
8.7890625e+01 7.8923637e+01 1.1883162e+02
9.0820313e+01 7.9218836e+01 1.1352043e+02
9.5214844e+01 7.9641672e+01 1.0745529e+02
9.8144531e+01 7.9808352e+01 1.0299330e+02
1.0107422e+02 8.0023845e+01 9.8458516e+01
1.0546875e+02 8.0277345e+01 9.2340809e+01
1.0839844e+02 8.0367416e+01 8.8320827e+01
1.1279297e+02 8.0526756e+01 8.2469787e+01
1.1718750e+02 8.0732715e+01 7.7074749e+01
1.2011719e+02 8.0750501e+01 7.3000375e+01
1.2451172e+02 8.0772237e+01 6.8471327e+01
1.2890625e+02 8.0777101e+01 6.3771773e+01
1.3330078e+02 8.0778852e+01 5.9762438e+01
1.3916016e+02 8.0788396e+01 5.4411960e+01
1.4355469e+02 8.0739359e+01 5.0480506e+01
1.4794922e+02 8.0651304e+01 4.6993186e+01
1.5380859e+02 8.0541833e+01 4.2971590e+01
1.5966797e+02 8.0470970e+01 3.9066818e+01
1.6552734e+02 8.0332711e+01 3.5364430e+01
1.7138672e+02 8.0252130e+01 3.2462968e+01
1.7724609e+02 8.0192379e+01 2.8811087e+01
1.8310547e+02 8.0008029e+01 2.5387275e+01
1.8896484e+02 7.9747083e+01 2.2974163e+01
1.9628906e+02 7.9694766e+01 2.0610431e+01
2.0361328e+02 7.9536793e+01 1.6890467e+01
2.1093750e+02 7.9287085e+01 1.4181624e+01
2.1826172e+02 7.9028636e+01 1.1691774e+01
2.2558594e+02 7.8710057e+01 9.7833641e+00
2.3291016e+02 7.8565657e+01 9.7730300e+00
2.4169922e+02 7.8531139e+01 7.1595718e+00
2.5048828e+02 7.8406601e+01 5.4696017e+00
2.5927734e+02 7.8343879e+01 3.5909144e+00
2.6806641e+02 7.8320552e+01 1.1135828e+00
2.7685547e+02 7.8149238e+01 -1.9494013e+00
2.8710938e+02 7.7705464e+01 -4.3003257e+00
2.9736328e+02 7.7441461e+01 -4.7678276e+00
3.0761719e+02 7.7300777e+01 -5.5447567e+00
3.1933594e+02 7.7422892e+01 -7.3164747e+00
3.2958984e+02 7.7159014e+01 -9.7665616e+00
3.4130859e+02 7.7060269e+01 -1.1260196e+01
3.5302734e+02 7.6854963e+01 -1.3980294e+01
3.6621094e+02 7.6451437e+01 -1.5331021e+01
3.7939453e+02 7.6180480e+01 -1.6333169e+01
3.9257813e+02 7.5675529e+01 -1.7673877e+01
4.0576172e+02 7.5711777e+01 -1.4391047e+01
4.2041016e+02 7.5606278e+01 -1.9173465e+01
4.3505859e+02 7.4763167e+01 -1.9007204e+01
4.5117188e+02 7.4970707e+01 -1.6059236e+01
4.6582031e+02 7.4560873e+01 -1.8501912e+01
4.8339844e+02 7.4164801e+01 -1.3937972e+01
4.9951172e+02 7.4386780e+01 -1.2383149e+01
5.1708984e+02 7.5380333e+01 -9.2100622e+00
5.3613281e+02 7.5881319e+01 -1.9138851e+01
5.5517578e+02 7.5254922e+01 -2.0659576e+01
5.7421875e+02 7.5517023e+01 -2.0645130e+01
5.9472656e+02 7.5621213e+01 -2.5759739e+01
6.1523438e+02 7.4970553e+01 -2.9915800e+01
6.3720703e+02 7.4889168e+01 -2.8508197e+01
6.5917969e+02 7.4870974e+01 -3.0474697e+01
6.8261719e+02 7.5041177e+01 -3.3314063e+01
7.0751953e+02 7.4504641e+01 -3.8554823e+01
7.3242188e+02 7.4396761e+01 -4.3066198e+01
7.5732422e+02 7.4180991e+01 -4.1299047e+01
7.8515625e+02 7.3147853e+01 -5.1048353e+01
8.1152344e+02 7.2615227e+01 -4.1446687e+01
8.4082031e+02 7.2528352e+01 -4.5904892e+01
8.7011719e+02 7.0952509e+01 -3.8263053e+01
9.0087891e+02 7.1855357e+01 -3.2650023e+01
9.3310547e+02 7.2014060e+01 -2.9609235e+01
9.6533203e+02 7.1972719e+01 -3.3638717e+01
1.0004883e+03 7.2558762e+01 -3.8976114e+01
1.0356445e+03 7.2287326e+01 -4.2114465e+01
1.0722656e+03 7.2186967e+01 -4.6081033e+01
1.1088867e+03 7.0736569e+01 -5.4806043e+01
1.1484375e+03 6.9703108e+01 -5.4316702e+01
1.1894531e+03 6.8171550e+01 -5.3278021e+01
1.2304688e+03 6.8709079e+01 -4.2932998e+01
1.2744141e+03 6.9014192e+01 -3.3460519e+01
1.3198242e+03 6.9744276e+01 -4.4532278e+01
1.3666992e+03 6.9763989e+01 -4.9472494e+01
1.4135742e+03 6.8366090e+01 -5.4205552e+01
1.4633789e+03 6.6210723e+01 -5.0768814e+01
1.5161133e+03 6.6382114e+01 -3.9160479e+01
1.5688477e+03 6.6778810e+01 -4.0451891e+01
1.6245117e+03 6.6686420e+01 -2.9026982e+01
1.6816406e+03 6.6703930e+01 -1.8634304e+01
1.7416992e+03 6.9624059e+01 -2.9722085e+01
1.8032227e+03 7.0283176e+01 -4.2778405e+01
1.8662109e+03 7.0555685e+01 -5.7025761e+01
1.9321289e+03 6.9956667e+01 -5.7320690e+01
1.9995117e+03 6.9665640e+01 -6.3663830e+01
2.0698242e+03 6.8589917e+01 -7.0830898e+01
2.1430664e+03 6.7029168e+01 -6.8002176e+01
2.2192383e+03 6.5876315e+01 -5.8422486e+01
2.2968750e+03 6.7105812e+01 -4.8194518e+01
2.3789063e+03 6.8734787e+01 -5.4957518e+01
2.4624023e+03 6.8177975e+01 -5.0498882e+01
2.5488281e+03 6.7751165e+01 -5.5065846e+01
2.6396484e+03 6.9493872e+01 -5.2136757e+01
2.7319336e+03 7.0315827e+01 -6.6243459e+01
2.8286133e+03 6.9263989e+01 -8.8839749e+01
2.9282227e+03 6.7289402e+01 -7.9935265e+01
3.0307617e+03 6.9760868e+01 -8.8771070e+01
3.1376953e+03 6.7508765e+01 -1.0173266e+02
3.2490234e+03 6.7258798e+01 -1.0668938e+02
3.3632813e+03 6.8153519e+01 -1.1680177e+02
3.4819336e+03 6.7479874e+01 -1.2766052e+02
3.6049805e+03 6.5405873e+01 -1.4127374e+02
3.7324219e+03 6.3648954e+01 -1.4316898e+02
3.8642578e+03 6.3475369e+01 -1.5580839e+02
4.0004883e+03 6.2251802e+01 -1.5811595e+02
4.1411133e+03 6.1401287e+01 -1.6039519e+02
4.2875977e+03 6.1515903e+01 -1.6791600e+02
4.4384766e+03 6.2626923e+01 -1.7085363e+02
4.5952148e+03 6.4391559e+01 1.5840613e+02
4.7563477e+03 6.2516294e+01 1.2408883e+02
4.9248047e+03 5.7987909e+01 9.1783126e+01
5.0976563e+03 5.3228207e+01 1.1728836e+02
5.2778320e+03 5.4340607e+01 1.1761235e+02
5.4638672e+03 5.8869064e+01 1.2022491e+02
5.6572266e+03 6.1629536e+01 7.6067997e+01
5.8564453e+03 5.7704112e+01 4.9919256e+01
6.0629883e+03 5.9724628e+01 3.5350727e+01
6.2768555e+03 5.6235449e+01 1.5846171e+00
6.4980469e+03 5.3083607e+01 2.4826216e+01
6.7265625e+03 5.5529698e+01 5.5261499e+00
6.9638672e+03 5.7641144e+01 -1.7661942e+01
7.2099609e+03 5.2762063e+01 -7.7660587e+01
7.4648438e+03 4.5872196e+01 -1.2782280e+02
7.7270508e+03 4.9301550e+01 9.3898702e+01
7.9995117e+03 5.4730363e+01 1.5022956e+01
8.2822266e+03 4.7335517e+01 -2.8525235e+01
8.5737305e+03 4.2940620e+01 -4.2393558e+00
8.8769531e+03 5.2276496e+01 -1.0079567e+01
9.1889648e+03 4.9929928e+01 -8.2228648e+01
9.5141602e+03 3.3198754e+01 -6.1328444e+01
9.8496094e+03 4.5362890e+01 -3.9871356e+01
1.0196777e+04 4.6072840e+01 -9.0920329e+01
1.0555664e+04 3.8808894e+01 -7.9819921e+01
1.0927734e+04 4.2829741e+01 -8.0359464e+01
1.1312988e+04 3.7677706e+01 -9.1991117e+01
1.1712891e+04 4.6640161e+01 -7.8867996e+01
1.2125977e+04 3.9177830e+01 -1.3331742e+02
1.2553711e+04 4.5123694e+01 -9.5105662e+01
1.2996094e+04 4.5141949e+01 -1.3157829e+02
1.3454590e+04 4.3736988e+01 -1.3025666e+02
1.3929199e+04 4.8156139e+01 -1.6600803e+02
1.4419922e+04 4.7162114e+01 1.4097992e+02
1.4928223e+04 3.9020272e+01 1.1514056e+02
1.5455566e+04 4.2212101e+01 1.0001591e+02
1.6000488e+04 4.1831694e+01 3.6167111e+01
1.6564453e+04 3.7693470e+01 -6.6803125e+01
1.7148926e+04 3.8842186e+01 -1.0573125e+02
1.7752441e+04 4.1456561e+01 -1.6222419e+02
1.8379395e+04 4.0036313e+01 1.6165449e+02
1.9026855e+04 4.0066262e+01 1.4890819e+02
1.9697754e+04 3.8058483e+01 1.2843620e+02
1.9999512e+04 4.4626604e+01 9.1050397e+01
];
