Param_Coord_x1 = 1
Param_Coord_x2 = 150
Param_Coord_x3 = 90
Param_Coord_Type = Spherical
Param_Coord_AngularFormat = degree
Param_Coord_Front = '0,0'
Param_Coord_Top = '90,0'
Data_Domain=Frequency
Data_Phase_AngularFormat=degree
Data_Format = LeveldB_Phase
Data_LevelType=SoundPressure

Curve=[
2.0507813e+01 4.3002864e+01 -4.1061798e+01
2.1972656e+01 4.7627574e+01 -3.9842899e+01
2.3437500e+01 4.9871908e+01 -3.9286528e+01
2.4902344e+01 5.2400395e+01 -5.2692434e+01
2.6367188e+01 5.4774066e+01 -5.6491191e+01
2.7832031e+01 5.6892971e+01 -6.7706893e+01
2.9296875e+01 5.8575934e+01 -7.6052007e+01
3.0761719e+01 6.0182294e+01 -8.4630126e+01
3.2226563e+01 6.1752919e+01 -9.5046488e+01
3.3691406e+01 6.3082197e+01 -1.0501966e+02
3.5156250e+01 6.4102514e+01 -1.1238162e+02
3.6621094e+01 6.5194063e+01 -1.2011661e+02
3.8085938e+01 6.6209217e+01 -1.2742012e+02
3.9550781e+01 6.7120402e+01 -1.3518541e+02
4.1015625e+01 6.7901620e+01 -1.4285015e+02
4.2480469e+01 6.8549740e+01 -1.4966316e+02
4.3945313e+01 6.9133755e+01 -1.5587705e+02
4.5410156e+01 6.9647915e+01 -1.6161426e+02
4.6875000e+01 7.0123086e+01 -1.6686242e+02
4.8339844e+01 7.0580921e+01 -1.7178420e+02
5.1269531e+01 7.1425943e+01 1.7908800e+02
5.2734375e+01 7.1826645e+01 1.7482249e+02
5.4199219e+01 7.2195819e+01 1.7084452e+02
5.5664063e+01 7.2413739e+01 1.6645589e+02
5.8593750e+01 7.3055206e+01 1.5980685e+02
6.0058594e+01 7.3380941e+01 1.5638702e+02
6.2988281e+01 7.3961273e+01 1.5086102e+02
6.4453125e+01 7.4261427e+01 1.4822337e+02
6.7382813e+01 7.4828096e+01 1.4281146e+02
6.8847656e+01 7.5084273e+01 1.3977701e+02
7.1777344e+01 7.5668565e+01 1.3382749e+02
7.4707031e+01 7.6176587e+01 1.2899896e+02
7.7636719e+01 7.6550134e+01 1.2419006e+02
7.9101563e+01 7.6742157e+01 1.2109722e+02
8.2031250e+01 7.7229819e+01 1.1560121e+02
8.4960938e+01 7.7638810e+01 1.1118323e+02
8.7890625e+01 7.7876359e+01 1.0619597e+02
9.0820313e+01 7.8174027e+01 1.0071231e+02
9.5214844e+01 7.8616446e+01 9.4402744e+01
9.8144531e+01 7.8808017e+01 8.9676365e+01
1.0107422e+02 7.9043667e+01 8.4874390e+01
1.0546875e+02 7.9319373e+01 7.8270024e+01
1.0839844e+02 7.9433652e+01 7.3915653e+01
1.1279297e+02 7.9576773e+01 6.7379878e+01
1.1718750e+02 7.9810092e+01 6.1706719e+01
1.2011719e+02 7.9810803e+01 5.7117944e+01
1.2451172e+02 7.9842554e+01 5.2329563e+01
1.2890625e+02 7.9840296e+01 4.7060395e+01
1.3330078e+02 7.9838433e+01 4.2793718e+01
1.3916016e+02 7.9865820e+01 3.6915641e+01
1.4355469e+02 7.9841225e+01 3.2476069e+01
1.4794922e+02 7.9752048e+01 2.8372389e+01
1.5380859e+02 7.9626656e+01 2.3752154e+01
1.5966797e+02 7.9567032e+01 1.9261909e+01
1.6552734e+02 7.9411109e+01 1.4885837e+01
1.7138672e+02 7.9350242e+01 1.1621032e+01
1.7724609e+02 7.9320200e+01 7.2292754e+00
1.8310547e+02 7.9143913e+01 3.0915928e+00
1.8896484e+02 7.8885477e+01 6.0958480e-02
1.9628906e+02 7.8867544e+01 -3.1306422e+00
2.0361328e+02 7.8743844e+01 -7.8355052e+00
2.1093750e+02 7.8494064e+01 -1.1656552e+01
2.1826172e+02 7.8238149e+01 -1.5159819e+01
2.2558594e+02 7.7883404e+01 -1.8200632e+01
2.3291016e+02 7.7704031e+01 -1.8844738e+01
2.4169922e+02 7.7689449e+01 -2.2698262e+01
2.5048828e+02 7.7477527e+01 -2.5740843e+01
2.5927734e+02 7.7335940e+01 -2.7758734e+01
2.6806641e+02 7.7365227e+01 -3.0947093e+01
2.7685547e+02 7.7255815e+01 -3.4815504e+01
2.8710938e+02 7.6830751e+01 -3.8791226e+01
2.9736328e+02 7.6575529e+01 -4.0559636e+01
3.0761719e+02 7.6335706e+01 -4.2651935e+01
3.1933594e+02 7.6416333e+01 -4.4326278e+01
3.2958984e+02 7.6380542e+01 -4.8075869e+01
3.4130859e+02 7.6349914e+01 -5.1185214e+01
3.5302734e+02 7.6175606e+01 -5.6133180e+01
3.6621094e+02 7.5733318e+01 -5.9406814e+01
3.7939453e+02 7.5416444e+01 -6.1389568e+01
3.9257813e+02 7.5193541e+01 -6.4392694e+01
4.0576172e+02 7.4959449e+01 -6.4582564e+01
4.2041016e+02 7.5030874e+01 -6.9102050e+01
4.3505859e+02 7.4367481e+01 -7.2619657e+01
4.5117188e+02 7.4448525e+01 -7.1043769e+01
4.6582031e+02 7.4316582e+01 -7.6658504e+01
4.8339844e+02 7.4128473e+01 -7.6008428e+01
4.9951172e+02 7.4167761e+01 -8.0558755e+01
5.1708984e+02 7.4660345e+01 -7.9730812e+01
5.3613281e+02 7.5287308e+01 -9.2877987e+01
5.5517578e+02 7.4200441e+01 -1.0135862e+02
5.7421875e+02 7.3392471e+01 -1.0225861e+02
5.9472656e+02 7.3684817e+01 -1.0510054e+02
6.1523438e+02 7.3013260e+01 -1.1653648e+02
6.3720703e+02 7.2473866e+01 -1.1426520e+02
6.5917969e+02 7.2310966e+01 -1.1924169e+02
6.8261719e+02 7.2326609e+01 -1.2914249e+02
7.0751953e+02 7.1012632e+01 -1.3446902e+02
7.3242188e+02 7.1024950e+01 -1.4491074e+02
7.5732422e+02 6.9348847e+01 -1.3823282e+02
7.8515625e+02 6.9501200e+01 -1.5675562e+02
8.1152344e+02 6.8034120e+01 -1.4911953e+02
8.4082031e+02 6.5886359e+01 -1.6076376e+02
8.7011719e+02 6.6376411e+01 -1.5620637e+02
9.0087891e+02 6.1942822e+01 -1.4402333e+02
9.3310547e+02 6.3910168e+01 -1.3845431e+02
9.6533203e+02 6.4637011e+01 -1.3981821e+02
1.0004883e+03 6.6550962e+01 -1.5436690e+02
1.0356445e+03 6.5142114e+01 -1.6074487e+02
1.0722656e+03 6.4486579e+01 -1.7420741e+02
1.1088867e+03 6.1671556e+01 1.7653707e+02
1.1484375e+03 6.1610840e+01 -1.7769498e+02
1.1894531e+03 5.9014358e+01 -1.7150133e+02
1.2304688e+03 6.2230617e+01 -1.7967439e+02
1.2744141e+03 5.8091053e+01 -1.7805694e+02
1.3198242e+03 5.7895252e+01 1.6993267e+02
1.3666992e+03 4.9921398e+01 1.5370644e+02
1.4135742e+03 5.5949646e+01 -1.5131110e+02
1.4633789e+03 5.6693932e+01 -1.4222001e+02
1.5161133e+03 5.9303799e+01 -1.6557213e+02
1.5688477e+03 6.2482654e+01 -1.5726542e+02
1.6245117e+03 6.0964590e+01 -1.6616339e+02
1.6816406e+03 6.4420196e+01 -1.7533464e+02
1.7416992e+03 6.6435031e+01 1.6467927e+02
1.8032227e+03 6.5154363e+01 1.4312431e+02
1.8662109e+03 6.3420550e+01 1.2554398e+02
1.9321289e+03 6.1807732e+01 1.3121047e+02
1.9995117e+03 6.3730328e+01 1.4517064e+02
2.0698242e+03 6.6167342e+01 1.1998167e+02
2.1430664e+03 6.6863077e+01 1.0171868e+02
2.2192383e+03 6.6535542e+01 7.9392829e+01
2.2968750e+03 6.5295492e+01 6.6749428e+01
2.3789063e+03 6.4422223e+01 6.0137876e+01
2.4624023e+03 6.4121791e+01 4.5843476e+01
2.5488281e+03 6.2059011e+01 5.0495929e+01
2.6396484e+03 6.4957282e+01 4.7154556e+01
2.7319336e+03 6.4190167e+01 2.7640982e+01
2.8286133e+03 6.5120002e+01 4.1663454e+01
2.9282227e+03 6.5486136e+01 1.5724826e+01
3.0307617e+03 6.6153125e+01 -1.4423875e+00
3.1376953e+03 6.4737454e+01 -8.6264406e+00
3.2490234e+03 6.5744811e+01 -1.9848971e+01
3.3632813e+03 6.5997915e+01 -4.1198472e+01
3.4819336e+03 6.5518576e+01 -4.8558443e+01
3.6049805e+03 6.5608041e+01 -5.9148226e+01
3.7324219e+03 6.3877746e+01 -7.9529245e+01
3.8642578e+03 6.4059887e+01 -9.4738748e+01
4.0004883e+03 6.3063296e+01 -9.3881814e+01
4.1411133e+03 6.4350709e+01 -1.0884930e+02
4.2875977e+03 6.1716876e+01 -1.2674112e+02
4.4384766e+03 6.2642630e+01 -1.2657682e+02
4.5952148e+03 6.1209820e+01 -1.4846808e+02
4.7563477e+03 5.9817682e+01 -1.4928568e+02
4.9248047e+03 6.0894569e+01 -1.5622453e+02
5.0976563e+03 5.8765138e+01 -1.7279609e+02
5.2778320e+03 6.0547877e+01 -1.7038995e+02
5.4638672e+03 5.6682857e+01 1.7403306e+02
5.6572266e+03 6.0277962e+01 1.7272630e+02
5.8564453e+03 5.9149949e+01 1.6684048e+02
6.0629883e+03 5.9996169e+01 1.5222228e+02
6.2768555e+03 5.9565977e+01 1.3287329e+02
6.4980469e+03 5.9950648e+01 1.2236388e+02
6.7265625e+03 5.9279232e+01 1.0216368e+02
6.9638672e+03 5.7446016e+01 8.6285115e+01
7.2099609e+03 5.3444456e+01 6.8863734e+01
7.4648438e+03 5.4269072e+01 6.3835398e+01
7.7270508e+03 5.2119569e+01 6.1381421e+01
7.9995117e+03 5.2616637e+01 5.4363901e+01
8.2822266e+03 5.2003953e+01 5.1329061e+01
8.5737305e+03 5.3618758e+01 2.3469039e+01
8.8769531e+03 5.2568925e+01 6.4146155e+00
9.1889648e+03 5.0295122e+01 -2.2261529e+01
9.5141602e+03 4.5472260e+01 -2.9528929e+01
9.8496094e+03 4.2363927e+01 -3.7362455e+01
1.0196777e+04 4.3332721e+01 -3.0699837e+01
1.0555664e+04 4.0042645e+01 1.7317480e+01
1.0927734e+04 3.9106271e+01 7.5182636e+00
1.1312988e+04 4.1114867e+01 -9.5391923e+00
1.1712891e+04 4.3142820e+01 -3.1199367e+00
1.2125977e+04 4.3725488e+01 -8.8803396e+00
1.2553711e+04 4.2460459e+01 -9.3008745e+00
1.2996094e+04 4.3400516e+01 -1.7886534e+01
1.3454590e+04 4.4962289e+01 -3.2308802e+01
1.3929199e+04 4.6501363e+01 -5.6411517e+01
1.4419922e+04 4.5775911e+01 -6.5403497e+01
1.4928223e+04 4.7705594e+01 -7.7276358e+01
1.5455566e+04 4.8839030e+01 -1.0866060e+02
1.6000488e+04 4.8374876e+01 -1.2669949e+02
1.6564453e+04 4.8733449e+01 -1.5497386e+02
1.7148926e+04 4.6729638e+01 -1.7876367e+02
1.7752441e+04 4.5450949e+01 1.6907031e+02
1.8379395e+04 4.4564412e+01 1.5965553e+02
1.9026855e+04 4.4398057e+01 1.4136991e+02
1.9697754e+04 4.1556694e+01 1.0835778e+02
1.9999512e+04 2.6046575e+01 1.2724594e+02
];
