Freq[Hz]     dBSPL  Phase[Deg]
2.0507813e+01 5.8058091e+01 1.7220372e+02
2.1972656e+01 5.9301024e+01 1.7139933e+02
2.3437500e+01 6.0495161e+01 1.6719269e+02
2.4902344e+01 6.0621210e+01 1.6795763e+02
2.6367188e+01 6.1798376e+01 1.6863642e+02
2.7832031e+01 6.2677795e+01 1.6704548e+02
2.9296875e+01 6.3525232e+01 1.6537630e+02
3.0761719e+01 6.4283158e+01 1.6306628e+02
3.2226563e+01 6.4906893e+01 1.6259305e+02
3.3691406e+01 6.5861353e+01 1.6071170e+02
3.5156250e+01 6.6591916e+01 1.5889977e+02
3.6621094e+01 6.7300668e+01 1.5617073e+02
3.8085938e+01 6.7946089e+01 1.5397251e+02
3.9550781e+01 6.8506763e+01 1.5160432e+02
4.1015625e+01 6.9136046e+01 1.5012913e+02
4.2480469e+01 6.9701233e+01 1.4799564e+02
4.3945313e+01 7.0232037e+01 1.4589178e+02
4.5410156e+01 7.0807516e+01 1.4416763e+02
4.6875000e+01 7.1347813e+01 1.4219780e+02
4.8339844e+01 7.1865461e+01 1.3994776e+02
5.1269531e+01 7.2848040e+01 1.3584535e+02
5.2734375e+01 7.3338889e+01 1.3395047e+02
5.4199219e+01 7.3802292e+01 1.3191767e+02
5.5664063e+01 7.4223009e+01 1.2992509e+02
5.8593750e+01 7.5071447e+01 1.2622948e+02
6.0058594e+01 7.5529669e+01 1.2392248e+02
6.2988281e+01 7.6230081e+01 1.1964160e+02
6.4453125e+01 7.6597863e+01 1.1794313e+02
6.7382813e+01 7.7382340e+01 1.1449598e+02
6.8847656e+01 7.7803103e+01 1.1230896e+02
7.1777344e+01 7.8504139e+01 1.0770221e+02
7.4707031e+01 7.9071477e+01 1.0336534e+02
7.7636719e+01 7.9664421e+01 9.9008962e+01
7.9101563e+01 7.9935128e+01 9.6829383e+01
8.2031250e+01 8.0407598e+01 9.2591794e+01
8.4960938e+01 8.0762152e+01 8.8312802e+01
8.7890625e+01 8.1115032e+01 8.4050853e+01
9.0820313e+01 8.1416823e+01 7.9907065e+01
9.5214844e+01 8.1802448e+01 7.3798972e+01
9.8144531e+01 8.2039810e+01 6.9742637e+01
1.0107422e+02 8.2241215e+01 6.5812672e+01
1.0546875e+02 8.2446938e+01 5.9931922e+01
1.0839844e+02 8.2546337e+01 5.6170006e+01
1.1279297e+02 8.2668808e+01 5.1254008e+01
1.1718750e+02 8.2757169e+01 4.5894600e+01
1.2011719e+02 8.2786031e+01 4.2895594e+01
1.2451172e+02 8.2833469e+01 3.8284429e+01
1.2890625e+02 8.2881967e+01 3.3871504e+01
1.3330078e+02 8.2920733e+01 2.9937716e+01
1.3916016e+02 8.3018697e+01 2.4968179e+01
1.4355469e+02 8.3037848e+01 2.1024399e+01
1.4794922e+02 8.3000532e+01 1.7492592e+01
1.5380859e+02 8.2985594e+01 1.3423272e+01
1.5966797e+02 8.2981975e+01 9.1282392e+00
1.6552734e+02 8.2873451e+01 5.5381339e+00
1.7138672e+02 8.2949962e+01 2.2213019e+00
1.7724609e+02 8.2921160e+01 -1.8941405e+00
1.8310547e+02 8.2796015e+01 -5.3560334e+00
1.8896484e+02 8.2761916e+01 -7.9435453e+00
1.9628906e+02 8.2780076e+01 -1.2511611e+01
2.0361328e+02 8.2584940e+01 -1.6568471e+01
2.1093750e+02 8.2458007e+01 -1.9942031e+01
2.1826172e+02 8.2287887e+01 -2.3528410e+01
2.2558594e+02 8.1948197e+01 -2.6100892e+01
2.3291016e+02 8.1997306e+01 -2.6943870e+01
2.4169922e+02 8.1983271e+01 -3.0653718e+01
2.5048828e+02 8.1953297e+01 -3.3553935e+01
2.5927734e+02 8.1990542e+01 -3.6866079e+01
2.6806641e+02 8.1955394e+01 -4.0587641e+01
2.7685547e+02 8.1850117e+01 -4.4460647e+01
2.8710938e+02 8.1569048e+01 -4.7690893e+01
2.9736328e+02 8.1322190e+01 -5.0774043e+01
3.0761719e+02 8.1211155e+01 -5.1184010e+01
3.1933594e+02 8.1584277e+01 -5.4627131e+01
3.2958984e+02 8.1611042e+01 -5.8838717e+01
3.4130859e+02 8.1608189e+01 -6.2803565e+01
3.5302734e+02 8.1540850e+01 -6.8169204e+01
3.6621094e+02 8.1217670e+01 -7.1867348e+01
3.7939453e+02 8.1187455e+01 -7.4471146e+01
3.9257813e+02 8.0679978e+01 -7.9502833e+01
4.0576172e+02 8.1145984e+01 -7.8979095e+01
4.2041016e+02 8.0954094e+01 -8.6531223e+01
4.3505859e+02 8.0288946e+01 -8.9088521e+01
4.5117188e+02 8.0919359e+01 -9.1414615e+01
4.6582031e+02 8.0570182e+01 -9.8404748e+01
4.8339844e+02 8.0380808e+01 -1.0172494e+02
4.9951172e+02 8.0060624e+01 -1.0730879e+02
5.1708984e+02 7.9948474e+01 -1.0771213e+02
5.3613281e+02 8.0124894e+01 -1.1634523e+02
5.5517578e+02 7.9549042e+01 -1.2121418e+02
5.7421875e+02 7.9345530e+01 -1.2178992e+02
5.9472656e+02 8.0105529e+01 -1.2590168e+02
6.1523438e+02 7.9270889e+01 -1.3614386e+02
6.3720703e+02 7.9345683e+01 -1.3984737e+02
6.5917969e+02 7.9243360e+01 -1.4273663e+02
6.8261719e+02 7.9202703e+01 -1.5288205e+02
7.0751953e+02 7.8211088e+01 -1.5509852e+02
7.3242188e+02 7.7764789e+01 -1.6606324e+02
7.5732422e+02 7.8018951e+01 -1.5720885e+02
7.8515625e+02 7.7936745e+01 -1.7706545e+02
8.1152344e+02 7.8109681e+01 -1.7366078e+02
8.4082031e+02 7.7031395e+01 1.7651214e+02
8.7011719e+02 7.8351205e+01 1.6779893e+02
9.0087891e+02 7.7884950e+01 1.6683268e+02
9.3310547e+02 7.7900584e+01 1.5009124e+02
9.6533203e+02 7.6979320e+01 1.4408826e+02
1.0004883e+03 7.6969772e+01 1.3213025e+02
1.0356445e+03 7.6367075e+01 1.2359095e+02
1.0722656e+03 7.5496173e+01 1.1491394e+02
1.1088867e+03 7.4435956e+01 1.1136140e+02
1.1484375e+03 7.4281120e+01 1.0223297e+02
1.1894531e+03 7.4205618e+01 9.0123477e+01
1.2304688e+03 7.4534564e+01 8.2843020e+01
1.2744141e+03 7.1428118e+01 7.3914614e+01
1.3198242e+03 7.1625645e+01 6.5943543e+01
1.3666992e+03 6.9659014e+01 6.2309932e+01
1.4135742e+03 7.0316579e+01 5.6236263e+01
1.4633789e+03 6.8793513e+01 4.2359631e+01
1.5161133e+03 6.8175530e+01 3.8704219e+01
1.5688477e+03 6.7204580e+01 4.1825340e+01
1.6245117e+03 6.7217843e+01 4.5052572e+01
1.6816406e+03 6.7075246e+01 3.2079007e+01
1.7416992e+03 6.8194375e+01 4.0318555e+01
1.8032227e+03 6.8920519e+01 2.6956718e+01
1.8662109e+03 6.9318248e+01 8.0480107e+00
1.9321289e+03 6.8848536e+01 5.9776516e+00
1.9995117e+03 6.9851772e+01 -1.4126331e+00
2.0698242e+03 6.9010673e+01 -2.6257642e+01
2.1430664e+03 6.6895180e+01 -2.1357874e+01
2.2192383e+03 6.7555643e+01 -4.1838747e+01
2.2968750e+03 6.4685508e+01 -5.0773299e+01
2.3789063e+03 6.5208918e+01 -4.2213278e+01
2.4624023e+03 6.5806438e+01 -5.9291026e+01
2.5488281e+03 6.1869104e+01 -6.3969412e+01
2.6396484e+03 6.2233768e+01 -5.5086156e+01
2.7319336e+03 6.4012513e+01 -6.2153434e+01
2.8286133e+03 6.2934350e+01 -6.9012428e+01
2.9282227e+03 6.2192028e+01 -7.6552368e+01
3.0307617e+03 6.3277286e+01 -8.0691421e+01
3.1376953e+03 6.3384537e+01 -9.6486822e+01
3.2490234e+03 6.2704645e+01 -9.9827015e+01
3.3632813e+03 6.2670365e+01 -1.0663880e+02
3.4819336e+03 6.3989828e+01 -1.1567536e+02
3.6049805e+03 6.2969881e+01 -1.3351176e+02
3.7324219e+03 6.3588303e+01 -1.4318464e+02
3.8642578e+03 6.2535833e+01 -1.5479149e+02
4.0004883e+03 6.1343651e+01 -1.7218155e+02
4.1411133e+03 6.4303340e+01 -1.5206863e+02
4.2875977e+03 6.5982292e+01 1.4559595e+02
4.4384766e+03 5.6695212e+01 6.6279308e+01
4.5952148e+03 5.5238730e+01 -1.3496841e+02
4.7563477e+03 6.1238627e+01 -1.5934771e+02
4.9248047e+03 5.7146716e+01 1.5472442e+02
5.0976563e+03 6.0918560e+01 -1.4808082e+02
5.2778320e+03 6.5611058e+01 1.5399691e+02
5.4638672e+03 5.9739964e+01 1.1169901e+02
5.6572266e+03 6.0127666e+01 1.4243407e+02
5.8564453e+03 5.5371796e+01 1.4262020e+02
6.0629883e+03 6.4952185e+01 1.3063712e+02
6.2768555e+03 6.0053260e+01 8.1008062e+01
6.4980469e+03 6.2493076e+01 8.8882524e+01
6.7265625e+03 6.0927135e+01 6.2571188e+01
6.9638672e+03 5.8710670e+01 4.5231199e+01
7.2099609e+03 6.0328690e+01 3.1947590e+01
7.4648438e+03 5.4953079e+01 1.7349334e+01
7.7270508e+03 5.3107632e+01 1.8749109e+00
7.9995117e+03 5.5414969e+01 2.7977076e+01
8.2822266e+03 5.4356523e+01 -1.0652880e+01
8.5737305e+03 5.4696783e+01 -1.9810714e+01
8.8769531e+03 5.2511147e+01 -3.7663422e+01
9.1889648e+03 5.1381532e+01 -5.3936432e+01
9.5141602e+03 4.9465054e+01 -7.1927017e+01
9.8496094e+03 4.8095264e+01 -5.2763793e+01
1.0196777e+04 4.9315332e+01 -6.0482405e+01
1.0555664e+04 5.0291424e+01 -7.7755465e+01
1.0927734e+04 5.0449282e+01 -9.2104303e+01
1.1312988e+04 4.9927036e+01 -1.1532854e+02
1.1712891e+04 5.0261920e+01 -1.1219150e+02
1.2125977e+04 4.9894385e+01 -1.2135896e+02
1.2553711e+04 5.0773056e+01 -1.4862387e+02
1.2996094e+04 4.9812347e+01 -1.6495630e+02
1.3454590e+04 4.7353595e+01 -1.6825974e+02
1.3929199e+04 4.7326154e+01 -1.7656152e+02
1.4419922e+04 5.0101683e+01 1.6799796e+02
1.4928223e+04 5.0988176e+01 1.3156054e+02
1.5455566e+04 5.0532854e+01 9.1095959e+01
1.6000488e+04 4.6596917e+01 7.3892667e+01
1.6564453e+04 4.3372295e+01 6.4589354e+01
1.7148926e+04 4.0268038e+01 7.5378241e+01
1.7752441e+04 4.2998171e+01 4.5953559e+01
1.8379395e+04 4.3085930e+01 1.6334863e+01
1.9026855e+04 4.1388442e+01 -4.0600127e+01
1.9697754e+04 3.4687301e+01 -7.6546792e+01
1.9999512e+04 4.2280663e+01 -1.3167226e+02
