Freq[Hz]     dBSPL  Phase[Deg]
2.0507813e+01 5.9178743e+01 1.7411007e+02
2.1972656e+01 6.0395109e+01 1.7329226e+02
2.3437500e+01 6.1353065e+01 1.7581841e+02
2.4902344e+01 6.2508576e+01 1.7237093e+02
2.6367188e+01 6.3137427e+01 1.7160141e+02
2.7832031e+01 6.4037850e+01 1.7067056e+02
2.9296875e+01 6.4890953e+01 1.6892048e+02
3.0761719e+01 6.5625764e+01 1.6716583e+02
3.2226563e+01 6.6337204e+01 1.6505834e+02
3.3691406e+01 6.6947653e+01 1.6385237e+02
3.5156250e+01 6.7677074e+01 1.6248506e+02
3.6621094e+01 6.8345435e+01 1.6060817e+02
3.8085938e+01 6.8993798e+01 1.5898588e+02
3.9550781e+01 6.9637407e+01 1.5739843e+02
4.1015625e+01 7.0250394e+01 1.5539593e+02
4.2480469e+01 7.0807305e+01 1.5369697e+02
4.3945313e+01 7.1355882e+01 1.5194851e+02
4.5410156e+01 7.1924582e+01 1.5032399e+02
4.6875000e+01 7.2467614e+01 1.4862416e+02
4.8339844e+01 7.2989353e+01 1.4671489e+02
5.1269531e+01 7.4002456e+01 1.4313223e+02
5.2734375e+01 7.4497450e+01 1.4137168e+02
5.4199219e+01 7.4973560e+01 1.3959835e+02
5.5664063e+01 7.5427599e+01 1.3766110e+02
5.8593750e+01 7.6290000e+01 1.3379948e+02
6.0058594e+01 7.6668867e+01 1.3179653e+02
6.2988281e+01 7.7483759e+01 1.2851597e+02
6.4453125e+01 7.7904830e+01 1.2647040e+02
6.7382813e+01 7.8579291e+01 1.2241085e+02
6.8847656e+01 7.8919951e+01 1.2062276e+02
7.1777344e+01 7.9586066e+01 1.1706723e+02
7.4707031e+01 8.0216132e+01 1.1324592e+02
7.7636719e+01 8.0759875e+01 1.0921405e+02
7.9101563e+01 8.1034965e+01 1.0736543e+02
8.2031250e+01 8.1501703e+01 1.0358491e+02
8.4960938e+01 8.1861357e+01 9.9807148e+01
8.7890625e+01 8.2208633e+01 9.6121623e+01
9.0820313e+01 8.2524742e+01 9.2394094e+01
9.5214844e+01 8.2896499e+01 8.6929546e+01
9.8144531e+01 8.3122520e+01 8.3425748e+01
1.0107422e+02 8.3330585e+01 8.0119400e+01
1.0546875e+02 8.3554995e+01 7.5035794e+01
1.0839844e+02 8.3691761e+01 7.1831858e+01
1.1279297e+02 8.3843335e+01 6.7226413e+01
1.1718750e+02 8.3920869e+01 6.2703915e+01
1.2011719e+02 8.3974364e+01 5.9967652e+01
1.2451172e+02 8.3984369e+01 5.6052163e+01
1.2890625e+02 8.4098723e+01 5.2464375e+01
1.3330078e+02 8.4184766e+01 4.8888362e+01
1.3916016e+02 8.4221227e+01 4.4059607e+01
1.4355469e+02 8.4172873e+01 4.1031734e+01
1.4794922e+02 8.4137081e+01 3.8493127e+01
1.5380859e+02 8.4148658e+01 3.5399128e+01
1.5966797e+02 8.4162721e+01 3.2144231e+01
1.6552734e+02 8.4148124e+01 2.9249802e+01
1.7138672e+02 8.4146947e+01 2.6012436e+01
1.7724609e+02 8.4019393e+01 2.3253833e+01
1.8310547e+02 8.3912916e+01 2.1322373e+01
1.8896484e+02 8.3934151e+01 1.9514265e+01
1.9628906e+02 8.3889696e+01 1.6493490e+01
2.0361328e+02 8.3760875e+01 1.4071615e+01
2.1093750e+02 8.3642133e+01 1.2410167e+01
2.1826172e+02 8.3599350e+01 1.0888538e+01
2.2558594e+02 8.3664697e+01 1.0050322e+01
2.3291016e+02 8.3786810e+01 6.8799199e+00
2.4169922e+02 8.3595193e+01 5.0021207e+00
2.5048828e+02 8.3584967e+01 3.2785041e+00
2.5927734e+02 8.3661270e+01 1.3439782e+00
2.6806641e+02 8.3548280e+01 -1.2083367e+00
2.7685547e+02 8.3434371e+01 -2.3503180e+00
2.8710938e+02 8.3508517e+01 -3.1715524e+00
2.9736328e+02 8.3612125e+01 -5.8894416e+00
3.0761719e+02 8.3638966e+01 -7.4677126e+00
3.1933594e+02 8.3412782e+01 -1.0012990e+01
3.2958984e+02 8.3655278e+01 -1.0178661e+01
3.4130859e+02 8.3736150e+01 -1.3887625e+01
3.5302734e+02 8.3661796e+01 -1.5281448e+01
3.6621094e+02 8.3687254e+01 -1.7157149e+01
3.7939453e+02 8.3679026e+01 -1.8618438e+01
3.9257813e+02 8.4164537e+01 -2.0488179e+01
4.0576172e+02 8.3924190e+01 -2.5604871e+01
4.2041016e+02 8.3644490e+01 -2.5465639e+01
4.3505859e+02 8.3825749e+01 -2.8821937e+01
4.5117188e+02 8.3486544e+01 -2.8235769e+01
4.6582031e+02 8.4223631e+01 -3.1589733e+01
4.8339844e+02 8.3825357e+01 -3.4178415e+01
4.9951172e+02 8.4146923e+01 -3.8920610e+01
5.1708984e+02 8.3657587e+01 -4.1867776e+01
5.3613281e+02 8.3793636e+01 -4.3263918e+01
5.5517578e+02 8.3857731e+01 -4.5249244e+01
5.7421875e+02 8.4061442e+01 -4.8844455e+01
5.9472656e+02 8.4082710e+01 -5.3414894e+01
6.1523438e+02 8.3697151e+01 -5.7390011e+01
6.3720703e+02 8.3875033e+01 -5.9522076e+01
6.5917969e+02 8.3528864e+01 -6.3675924e+01
6.8261719e+02 8.3384243e+01 -6.6258877e+01
7.0751953e+02 8.2653004e+01 -7.0718549e+01
7.3242188e+02 8.3041736e+01 -7.0621692e+01
7.5732422e+02 8.2244184e+01 -7.0783358e+01
7.8515625e+02 8.3195557e+01 -7.4246161e+01
8.1152344e+02 8.2823620e+01 -7.6217988e+01
8.4082031e+02 8.2781876e+01 -8.0214363e+01
8.7011719e+02 8.3540394e+01 -8.2414752e+01
9.0087891e+02 8.3218457e+01 -8.7379148e+01
9.3310547e+02 8.3840222e+01 -8.9333602e+01
9.6533203e+02 8.3981458e+01 -1.0035770e+02
1.0004883e+03 8.3979833e+01 -1.0483070e+02
1.0356445e+03 8.3653741e+01 -1.1195729e+02
1.0722656e+03 8.3444925e+01 -1.1610261e+02
1.1088867e+03 8.3504274e+01 -1.2340949e+02
1.1484375e+03 8.3731336e+01 -1.2820645e+02
1.1894531e+03 8.3410235e+01 -1.3844393e+02
1.2304688e+03 8.3603762e+01 -1.4543224e+02
1.2744141e+03 8.2883480e+01 -1.5401152e+02
1.3198242e+03 8.3009846e+01 -1.6211018e+02
1.3666992e+03 8.2222734e+01 -1.6919140e+02
1.4135742e+03 8.2317489e+01 -1.7598922e+02
1.4633789e+03 8.1848102e+01 1.7739357e+02
1.5161133e+03 8.1972533e+01 1.6773484e+02
1.5688477e+03 8.1730350e+01 1.6005531e+02
1.6245117e+03 8.1330092e+01 1.5074854e+02
1.6816406e+03 8.1028787e+01 1.4422009e+02
1.7416992e+03 8.0926889e+01 1.3704077e+02
1.8032227e+03 8.1133073e+01 1.2814285e+02
1.8662109e+03 8.0896597e+01 1.1725797e+02
1.9321289e+03 8.0465788e+01 1.0766877e+02
1.9995117e+03 7.9757749e+01 1.0202404e+02
2.0698242e+03 7.9985295e+01 1.0128474e+02
2.1430664e+03 8.0766939e+01 8.8135592e+01
2.2192383e+03 8.0155767e+01 7.6478051e+01
2.2968750e+03 7.9435541e+01 7.1065100e+01
2.3789063e+03 7.9330458e+01 6.4389338e+01
2.4624023e+03 7.9161151e+01 5.8589441e+01
2.5488281e+03 7.8761318e+01 5.0347519e+01
2.6396484e+03 7.8661572e+01 4.8757428e+01
2.7319336e+03 7.8303413e+01 4.2071803e+01
2.8286133e+03 7.8773425e+01 4.3649800e+01
2.9282227e+03 7.9463990e+01 3.4979554e+01
3.0307617e+03 7.9597040e+01 2.5062909e+01
3.1376953e+03 7.8921854e+01 1.9671189e+01
3.2490234e+03 7.9726951e+01 1.7146722e+01
3.3632813e+03 8.0181938e+01 1.0855133e+01
3.4819336e+03 8.0550154e+01 3.9506840e+00
3.6049805e+03 8.1565278e+01 4.8989293e+00
3.7324219e+03 8.2608448e+01 -5.5661522e+00
3.8642578e+03 8.2977763e+01 -1.6973622e+01
4.0004883e+03 8.2822571e+01 -2.0142805e+01
4.1411133e+03 8.3957321e+01 -2.6745964e+01
4.2875977e+03 8.4156209e+01 -3.9477090e+01
4.4384766e+03 8.4327080e+01 -4.4232684e+01
4.5952148e+03 8.4840789e+01 -5.7556344e+01
4.7563477e+03 8.3992224e+01 -6.7471198e+01
4.9248047e+03 8.3584641e+01 -6.8753209e+01
5.0976563e+03 8.4879585e+01 -7.5697654e+01
5.2778320e+03 8.4584268e+01 -9.0021831e+01
5.4638672e+03 8.3800039e+01 -9.5591794e+01
5.6572266e+03 8.4109375e+01 -1.0064848e+02
5.8564453e+03 8.3981072e+01 -1.1066768e+02
6.0629883e+03 8.3731860e+01 -1.2155859e+02
6.2768555e+03 8.2914425e+01 -1.3083918e+02
6.4980469e+03 8.2126813e+01 -1.3209294e+02
6.7265625e+03 8.2488025e+01 -1.4098837e+02
6.9638672e+03 8.2187628e+01 -1.5112143e+02
7.2099609e+03 8.1368209e+01 -1.5948524e+02
7.4648438e+03 8.1294477e+01 -1.6420841e+02
7.7270508e+03 8.1062925e+01 -1.7089593e+02
7.9995117e+03 8.1178543e+01 1.7961104e+02
8.2822266e+03 8.1490881e+01 1.7086121e+02
8.5737305e+03 8.1205436e+01 1.5935490e+02
8.8769531e+03 8.1152406e+01 1.4920166e+02
9.1889648e+03 8.0588555e+01 1.3831823e+02
9.5141602e+03 8.0568651e+01 1.3213417e+02
9.8496094e+03 8.0545288e+01 1.2293043e+02
1.0196777e+04 8.0773711e+01 1.1362516e+02
1.0555664e+04 8.0649822e+01 1.0226207e+02
1.0927734e+04 8.0500894e+01 9.1518765e+01
1.1312988e+04 8.0295212e+01 7.9793430e+01
1.1712891e+04 7.9967868e+01 6.8409947e+01
1.2125977e+04 7.9605368e+01 5.6929227e+01
1.2553711e+04 7.9063010e+01 4.4727068e+01
1.2996094e+04 7.8834529e+01 3.3317059e+01
1.3454590e+04 7.8498515e+01 2.0464777e+01
1.3929199e+04 7.7945938e+01 3.4638805e+00
1.4419922e+04 7.6976810e+01 -9.6251290e+00
1.4928223e+04 7.7103564e+01 -2.0134601e+01
1.5455566e+04 7.7557238e+01 -3.5782293e+01
1.6000488e+04 7.7899298e+01 -5.5147818e+01
1.6564453e+04 7.7784452e+01 -7.3325785e+01
1.7148926e+04 7.8428038e+01 -9.0998442e+01
1.7752441e+04 7.7011714e+01 -1.2343792e+02
1.8379395e+04 7.5464068e+01 -1.4332232e+02
1.9026855e+04 7.4461316e+01 -1.6597015e+02
1.9697754e+04 7.2474964e+01 1.6739800e+02
1.9999512e+04 7.1280348e+01 1.5107725e+02
