Freq[Hz]     dBSPL  Phase[Deg]
2.0507813e+01 5.9083223e+01 1.7391859e+02 
2.1972656e+01 6.0305987e+01 1.7315096e+02 
2.3437500e+01 6.1259201e+01 1.7522153e+02 
2.4902344e+01 6.2370728e+01 1.7209177e+02 
2.6367188e+01 6.3031793e+01 1.7140037e+02 
2.7832031e+01 6.3930693e+01 1.7041990e+02 
2.9296875e+01 6.4784920e+01 1.6867827e+02 
3.0761719e+01 6.5517997e+01 1.6688175e+02 
3.2226563e+01 6.6229070e+01 1.6487254e+02 
3.3691406e+01 6.6857503e+01 1.6363440e+02 
3.5156250e+01 6.7588177e+01 1.6222723e+02 
3.6621094e+01 6.8260107e+01 1.6028145e+02 
3.8085938e+01 6.8905206e+01 1.5861491e+02 
3.9550781e+01 6.9541942e+01 1.5699520e+02 
4.1015625e+01 7.0158882e+01 1.5501261e+02 
4.2480469e+01 7.0713791e+01 1.5327711e+02 
4.3945313e+01 7.1261514e+01 1.5149825e+02 
4.5410156e+01 7.1827516e+01 1.4986199e+02 
4.6875000e+01 7.2369058e+01 1.4815268e+02 
4.8339844e+01 7.2889910e+01 1.4621915e+02 
5.1269531e+01 7.3897601e+01 1.4259728e+02 
5.2734375e+01 7.4390946e+01 1.4083136e+02 
5.4199219e+01 7.4865341e+01 1.3904667e+02 
5.5664063e+01 7.5316871e+01 1.3711003e+02 
5.8593750e+01 7.6180213e+01 1.3326480e+02 
6.0058594e+01 7.6562807e+01 1.3121831e+02 
6.2988281e+01 7.7364773e+01 1.2788029e+02 
6.4453125e+01 7.7783512e+01 1.2587378e+02 
6.7382813e+01 7.8466135e+01 1.2182806e+02 
6.8847656e+01 7.8809440e+01 1.1999886e+02 
7.1777344e+01 7.9473447e+01 1.1638054e+02 
7.4707031e+01 8.0097894e+01 1.1251254e+02 
7.7636719e+01 8.0640448e+01 1.0845539e+02 
7.9101563e+01 8.0912826e+01 1.0658626e+02 
8.2031250e+01 8.1377415e+01 1.0278293e+02 
8.4960938e+01 8.1734272e+01 9.8972903e+01 
8.7890625e+01 8.2079375e+01 9.5240609e+01 
9.0820313e+01 8.2392379e+01 9.1477341e+01 
9.5214844e+01 8.2758142e+01 8.5937452e+01 
9.8144531e+01 8.2977661e+01 8.2381414e+01 
1.0107422e+02 8.3176804e+01 7.9049718e+01 
1.0546875e+02 8.3393546e+01 7.3920307e+01 
1.0839844e+02 8.3520660e+01 7.0694346e+01 
1.1279297e+02 8.3665881e+01 6.6110494e+01 
1.1718750e+02 8.3742880e+01 6.1523403e+01 
1.2011719e+02 8.3791105e+01 5.8744616e+01 
1.2451172e+02 8.3791684e+01 5.4783413e+01 
1.2890625e+02 8.3896377e+01 5.1159319e+01 
1.3330078e+02 8.3972550e+01 4.7561242e+01 
1.3916016e+02 8.4005360e+01 4.2689635e+01 
1.4355469e+02 8.3949891e+01 3.9581089e+01 
1.4794922e+02 8.3901929e+01 3.6972273e+01 
1.5380859e+02 8.3896762e+01 3.3818420e+01 
1.5966797e+02 8.3895408e+01 3.0496092e+01 
1.6552734e+02 8.3856544e+01 2.7565872e+01 
1.7138672e+02 8.3853371e+01 2.4337820e+01 
1.7724609e+02 8.3713093e+01 2.1389333e+01 
1.8310547e+02 8.3567604e+01 1.9325272e+01 
1.8896484e+02 8.3548159e+01 1.7599359e+01 
1.9628906e+02 8.3491222e+01 1.4642200e+01 
2.0361328e+02 8.3339059e+01 1.2177310e+01 
2.1093750e+02 8.3193720e+01 1.0457453e+01 
2.1826172e+02 8.3115938e+01 8.9362108e+00 
2.2558594e+02 8.3126659e+01 8.2275762e+00 
2.3291016e+02 8.3273258e+01 5.3165879e+00 
2.4169922e+02 8.3061673e+01 3.2086584e+00 
2.5048828e+02 8.3022848e+01 1.4186482e+00 
2.5927734e+02 8.3061208e+01 -4.6026794e-01 
2.6806641e+02 8.2938228e+01 -3.1643577e+00 
2.7685547e+02 8.2751251e+01 -4.4277204e+00 
2.8710938e+02 8.2756946e+01 -4.9705647e+00 
2.9736328e+02 8.2851468e+01 -7.5088685e+00 
3.0761719e+02 8.2846333e+01 -8.8859194e+00 
3.1933594e+02 8.2579255e+01 -1.2037602e+01 
3.2958984e+02 8.2711854e+01 -1.1564425e+01 
3.4130859e+02 8.2823980e+01 -1.4960955e+01 
3.5302734e+02 8.2710095e+01 -1.6535983e+01 
3.6621094e+02 8.2680309e+01 -1.8275701e+01 
3.7939453e+02 8.2601142e+01 -2.0168242e+01 
3.9257813e+02 8.2949391e+01 -2.0740768e+01 
4.0576172e+02 8.2823414e+01 -2.6076677e+01 
4.2041016e+02 8.2371119e+01 -2.6171957e+01 
4.3505859e+02 8.2538879e+01 -2.8750260e+01 
4.5117188e+02 8.2069927e+01 -2.8210493e+01 
4.6582031e+02 8.2841185e+01 -3.0302646e+01 
4.8339844e+02 8.2398370e+01 -3.3295630e+01 
4.9951172e+02 8.2788352e+01 -3.7177298e+01 
5.1708984e+02 8.2327239e+01 -4.1031348e+01 
5.3613281e+02 8.2333946e+01 -4.2937836e+01 
5.5517578e+02 8.2174902e+01 -4.4694263e+01 
5.7421875e+02 8.2242322e+01 -4.7568648e+01 
5.9472656e+02 8.2278808e+01 -5.0961334e+01 
6.1523438e+02 8.1929380e+01 -5.5404862e+01 
6.3720703e+02 8.1989685e+01 -5.6530318e+01 
6.5917969e+02 8.1667303e+01 -6.1041627e+01 
6.8261719e+02 8.1364628e+01 -6.4056939e+01 
7.0751953e+02 8.0635047e+01 -6.8350132e+01 
7.3242188e+02 8.0969631e+01 -6.7579866e+01 
7.5732422e+02 7.9952292e+01 -6.9735924e+01 
7.8515625e+02 8.0709162e+01 -7.1175990e+01 
8.1152344e+02 8.0291767e+01 -7.4727307e+01 
8.4082031e+02 8.0056081e+01 -7.9952157e+01 
8.7011719e+02 8.0727642e+01 -8.0015713e+01 
9.0087891e+02 7.9770592e+01 -8.8992651e+01 
9.3310547e+02 7.9837955e+01 -8.5136326e+01 
9.6533203e+02 8.0148679e+01 -9.6167878e+01 
1.0004883e+03 8.0041800e+01 -9.8741500e+01 
1.0356445e+03 7.9923046e+01 -1.0753269e+02 
1.0722656e+03 7.9078920e+01 -1.1134870e+02 
1.1088867e+03 7.9072975e+01 -1.2117875e+02 
1.1484375e+03 7.8779366e+01 -1.2397243e+02 
1.1894531e+03 7.8468675e+01 -1.3260976e+02 
1.2304688e+03 7.8136889e+01 -1.4095428e+02 
1.2744141e+03 7.7967575e+01 -1.4890888e+02 
1.3198242e+03 7.7528858e+01 -1.6037868e+02 
1.3666992e+03 7.7216889e+01 -1.6728071e+02 
1.4135742e+03 7.6450930e+01 -1.7918893e+02 
1.4633789e+03 7.6193844e+01 1.7211151e+02 
1.5161133e+03 7.6053118e+01 1.6309510e+02 
1.5688477e+03 7.6086900e+01 1.5415613e+02 
1.6245117e+03 7.6479805e+01 1.3936137e+02 
1.6816406e+03 7.6556502e+01 1.2428364e+02 
1.7416992e+03 7.6120829e+01 1.1150348e+02 
1.8032227e+03 7.6045404e+01 9.8317876e+01 
1.8662109e+03 7.6081985e+01 9.1047030e+01 
1.9321289e+03 7.6906210e+01 7.5150301e+01 
1.9995117e+03 7.6659388e+01 6.1083256e+01 
2.0698242e+03 7.5972889e+01 4.8581262e+01 
2.1430664e+03 7.4371822e+01 3.3086031e+01 
2.2192383e+03 7.2788759e+01 3.5205011e+01 
2.2968750e+03 7.2488454e+01 3.3143744e+01 
2.3789063e+03 7.1668216e+01 3.0539298e+01 
2.4624023e+03 7.0791184e+01 3.9323909e+01 
2.5488281e+03 7.1699258e+01 3.9409775e+01 
2.6396484e+03 7.2799569e+01 4.3230255e+01 
2.7319336e+03 7.3325352e+01 3.6680040e+01 
2.8286133e+03 7.3510385e+01 3.8366419e+01 
2.9282227e+03 7.4148158e+01 3.6118638e+01 
3.0307617e+03 7.3831800e+01 3.3769287e+01 
3.1376953e+03 7.5382678e+01 4.1799033e+01 
3.2490234e+03 7.7339528e+01 3.1431473e+01 
3.3632813e+03 7.8113098e+01 2.6421021e+01 
3.4819336e+03 7.9555766e+01 2.3318883e+01 
3.6049805e+03 8.1214325e+01 1.1016528e+01 
3.7324219e+03 8.1371970e+01 1.4981603e+00 
3.8642578e+03 8.1926795e+01 -7.0360077e+00 
4.0004883e+03 8.1869050e+01 -1.4213261e+01 
4.1411133e+03 8.2720626e+01 -2.1105415e+01 
4.2875977e+03 8.2003551e+01 -3.0947906e+01 
4.4384766e+03 8.2737188e+01 -3.4530463e+01 
4.5952148e+03 8.2167726e+01 -4.2329916e+01 
4.7563477e+03 8.2982789e+01 -4.5294676e+01 
4.9248047e+03 8.3176871e+01 -5.5022851e+01 
5.0976563e+03 8.3019208e+01 -6.5207680e+01 
5.2778320e+03 8.2653878e+01 -6.8757005e+01 
5.4638672e+03 8.3070115e+01 -7.6602654e+01 
5.6572266e+03 8.2635954e+01 -8.3633576e+01 
5.8564453e+03 8.2656946e+01 -9.1720300e+01 
6.0629883e+03 8.2435761e+01 -9.9913152e+01 
6.2768555e+03 8.1536034e+01 -1.1000655e+02 
6.4980469e+03 8.1618884e+01 -1.1698756e+02 
6.7265625e+03 8.0208930e+01 -1.2461756e+02 
6.9638672e+03 8.0165269e+01 -1.2618005e+02 
7.2099609e+03 8.0825323e+01 -1.3623258e+02 
7.4648438e+03 8.0376008e+01 -1.5203314e+02 
7.7270508e+03 7.9287371e+01 -1.6611903e+02 
7.9995117e+03 7.6724780e+01 -1.7352926e+02 
8.2822266e+03 7.6305271e+01 -1.7219358e+02 
8.5737305e+03 7.6449278e+01 -1.7704240e+02 
8.8769531e+03 7.6293766e+01 1.7692351e+02 
9.1889648e+03 7.5943015e+01 1.6542185e+02 
9.5141602e+03 7.5000627e+01 1.5828721e+02 
9.8496094e+03 7.4907456e+01 1.5406334e+02 
1.0196777e+04 7.4747980e+01 1.4789302e+02 
1.0555664e+04 7.4338688e+01 1.3558861e+02 
1.0927734e+04 7.3459657e+01 1.2634370e+02 
1.1312988e+04 7.1980038e+01 1.1851777e+02 
1.1712891e+04 7.1239755e+01 1.1408706e+02 
1.2125977e+04 6.9795545e+01 1.0826679e+02 
1.2553711e+04 6.8271153e+01 1.0962181e+02 
1.2996094e+04 6.9993204e+01 1.1186270e+02 
1.3454590e+04 6.9111214e+01 9.5563771e+01 
1.3929199e+04 6.9243801e+01 7.9961437e+01 
1.4419922e+04 6.6519257e+01 7.1738826e+01 
1.4928223e+04 6.6769660e+01 8.4609510e+01 
1.5455566e+04 6.8550306e+01 6.9292897e+01 
1.6000488e+04 7.0546727e+01 4.9824183e+01 
1.6564453e+04 7.0563276e+01 2.6275609e+01 
1.7148926e+04 6.9575031e+01 -2.8721917e+00 
1.7752441e+04 6.4576394e+01 -3.2288718e+01 
1.8379395e+04 6.1297533e+01 -4.0954957e+01 
1.9026855e+04 5.5946640e+01 -3.9113291e+01 
1.9697754e+04 5.4425604e+01 1.0977972e+01 
1.9999512e+04 5.8109251e+01 1.1560629e+01 
