Param_Coord_x1 = 1
Param_Coord_x2 = 80
Param_Coord_x3 = 0
Param_Coord_Type = Spherical
Param_Coord_AngularFormat = degree
Param_Coord_Front = '0,0'
Param_Coord_Top = '90,0'
Data_Domain=Frequency
Data_Phase_AngularFormat=degree
Data_Format = LeveldB_Phase
Data_LevelType=SoundPressure

Curve=[
2.0507813e+01 5.6459566e+01 -6.1502274e+01
2.1972656e+01 5.8130003e+01 -6.6106219e+01
2.3437500e+01 5.9749741e+01 -7.6459947e+01
2.4902344e+01 6.1469747e+01 -8.6216449e+01
2.6367188e+01 6.2617574e+01 -9.4590967e+01
2.7832031e+01 6.4232542e+01 -1.0409550e+02
2.9296875e+01 6.5516941e+01 -1.1094833e+02
3.0761719e+01 6.6797569e+01 -1.1858874e+02
3.2226563e+01 6.8064006e+01 -1.2537679e+02
3.3691406e+01 6.9174607e+01 -1.3212496e+02
3.5156250e+01 7.0260927e+01 -1.3823452e+02
3.6621094e+01 7.1322826e+01 -1.4419329e+02
3.8085938e+01 7.2214314e+01 -1.5023052e+02
3.9550781e+01 7.3007361e+01 -1.5580624e+02
4.1015625e+01 7.3725675e+01 -1.6116091e+02
4.2480469e+01 7.4495619e+01 -1.6640205e+02
4.3945313e+01 7.5178751e+01 -1.7118470e+02
4.5410156e+01 7.5833284e+01 -1.7582937e+02
4.6875000e+01 7.6467667e+01 1.7923654e+02
4.8339844e+01 7.7028056e+01 1.7447748e+02
5.1269531e+01 7.8142542e+01 1.6521562e+02
5.2734375e+01 7.8674556e+01 1.6082493e+02
5.4199219e+01 7.9161129e+01 1.5649991e+02
5.5664063e+01 7.9619330e+01 1.5205490e+02
5.8593750e+01 8.0451845e+01 1.4329738e+02
6.0058594e+01 8.0815412e+01 1.3866205e+02
6.2988281e+01 8.1565793e+01 1.2943802e+02
6.4453125e+01 8.1894416e+01 1.2520311e+02
6.7382813e+01 8.2467026e+01 1.1688289e+02
6.8847656e+01 8.2645859e+01 1.1269942e+02
7.1777344e+01 8.2955324e+01 1.0304971e+02
7.4707031e+01 8.3263970e+01 9.4293388e+01
7.7636719e+01 8.3421769e+01 8.7010036e+01
7.9101563e+01 8.3370082e+01 8.3249532e+01
8.2031250e+01 8.3308373e+01 7.5181395e+01
8.4960938e+01 8.3311015e+01 6.8281554e+01
8.7890625e+01 8.3191265e+01 6.2572809e+01
9.0820313e+01 8.3043194e+01 5.6518865e+01
9.5214844e+01 8.2955142e+01 4.9348326e+01
9.8144531e+01 8.2767900e+01 4.5002113e+01
1.0107422e+02 8.2759939e+01 4.0348175e+01
1.0546875e+02 8.2537340e+01 3.4433922e+01
1.0839844e+02 8.2400595e+01 3.0587047e+01
1.1279297e+02 8.2269496e+01 2.6065423e+01
1.1718750e+02 8.2114949e+01 2.0600864e+01
1.2011719e+02 8.1913028e+01 1.7681301e+01
1.2451172e+02 8.1683095e+01 1.3819592e+01
1.2890625e+02 8.1552634e+01 1.0415169e+01
1.3330078e+02 8.1395926e+01 7.5168356e+00
1.3916016e+02 8.1424781e+01 3.4432821e+00
1.4355469e+02 8.1267819e+01 -4.0284152e-01
1.4794922e+02 8.1062530e+01 -3.2590462e+00
1.5380859e+02 8.0759547e+01 -5.6804009e+00
1.5966797e+02 8.0896363e+01 -7.4868225e+00
1.6552734e+02 8.0820347e+01 -1.1585884e+01
1.7138672e+02 8.0848169e+01 -1.3699383e+01
1.7724609e+02 8.0798676e+01 -1.8769183e+01
1.8310547e+02 8.0407321e+01 -2.1380328e+01
1.8896484e+02 8.0169290e+01 -2.1611101e+01
1.9628906e+02 8.0664469e+01 -2.3593477e+01
2.0361328e+02 8.0637234e+01 -2.9791739e+01
2.1093750e+02 8.0273608e+01 -3.3322311e+01
2.1826172e+02 7.9986773e+01 -3.5317799e+01
2.2558594e+02 7.9815915e+01 -3.7906321e+01
2.3291016e+02 7.9865495e+01 -3.5982541e+01
2.4169922e+02 8.0165847e+01 -4.3896818e+01
2.5048828e+02 7.9687703e+01 -4.4518103e+01
2.5927734e+02 7.9856048e+01 -4.6639178e+01
2.6806641e+02 8.0173049e+01 -5.0126305e+01
2.7685547e+02 7.9562616e+01 -5.7242891e+01
2.8710938e+02 7.8745039e+01 -5.3816438e+01
2.9736328e+02 7.9217985e+01 -5.3615286e+01
3.0761719e+02 7.9201916e+01 -5.8231102e+01
3.1933594e+02 7.9541938e+01 -5.8874581e+01
3.2958984e+02 7.9264989e+01 -6.4744391e+01
3.4130859e+02 7.9643491e+01 -6.6925241e+01
3.5302734e+02 7.9701319e+01 -7.3883581e+01
3.6621094e+02 7.9233443e+01 -8.2421075e+01
3.7939453e+02 7.7925641e+01 -8.2467794e+01
3.9257813e+02 7.9059412e+01 -8.0926874e+01
4.0576172e+02 7.9571468e+01 -8.9314778e+01
4.2041016e+02 7.9030096e+01 -9.8123531e+01
4.3505859e+02 7.8601778e+01 -9.9031712e+01
4.5117188e+02 7.8891302e+01 -1.0587200e+02
4.6582031e+02 7.8005586e+01 -1.1070295e+02
4.8339844e+02 7.8936907e+01 -1.1186252e+02
4.9951172e+02 7.8374572e+01 -1.1937068e+02
5.1708984e+02 7.8417941e+01 -1.2604837e+02
5.3613281e+02 7.7614766e+01 -1.3283574e+02
5.5517578e+02 7.7515724e+01 -1.3669626e+02
5.7421875e+02 7.6895082e+01 -1.4220977e+02
5.9472656e+02 7.6491075e+01 -1.4391816e+02
6.1523438e+02 7.6343378e+01 -1.4613125e+02
6.3720703e+02 7.7098793e+01 -1.5655080e+02
6.5917969e+02 7.5429548e+01 -1.5841139e+02
6.8261719e+02 7.5830055e+01 -1.5924178e+02
7.0751953e+02 7.7096694e+01 -1.6226568e+02
7.3242188e+02 7.6604594e+01 1.7919296e+02
7.5732422e+02 7.6248499e+01 1.7984214e+02
7.8515625e+02 7.6202670e+01 1.6543685e+02
8.1152344e+02 7.4732846e+01 1.5392545e+02
8.4082031e+02 7.4528083e+01 1.5387583e+02
8.7011719e+02 7.3764413e+01 1.4040606e+02
9.0087891e+02 7.2233295e+01 1.4374102e+02
9.3310547e+02 7.2373997e+01 1.5379477e+02
9.6533203e+02 7.2291047e+01 1.5036275e+02
1.0004883e+03 7.2328257e+01 1.5478172e+02
1.0356445e+03 7.4362832e+01 1.4782433e+02
1.0722656e+03 7.5204770e+01 1.4017852e+02
1.1088867e+03 7.5153306e+01 1.2228926e+02
1.1484375e+03 7.5313113e+01 1.0159329e+02
1.1894531e+03 7.4167416e+01 9.9246398e+01
1.2304688e+03 7.3116265e+01 8.2640837e+01
1.2744141e+03 7.2666708e+01 9.2442914e+01
1.3198242e+03 7.3391947e+01 8.1216251e+01
1.3666992e+03 7.3657860e+01 6.8662907e+01
1.4135742e+03 7.4976097e+01 6.6952511e+01
1.4633789e+03 7.6295193e+01 3.8442283e+01
1.5161133e+03 7.5686459e+01 2.0790388e+01
1.5688477e+03 7.4420245e+01 4.0742290e+00
1.6245117e+03 7.2443996e+01 -2.9235680e+00
1.6816406e+03 7.3497950e+01 -5.1045547e+00
1.7416992e+03 7.3501323e+01 -2.6026799e+01
1.8032227e+03 7.4359889e+01 -3.2675681e+01
1.8662109e+03 7.8534327e+01 -4.4701983e+01
1.9321289e+03 7.8441493e+01 -8.0767305e+01
1.9995117e+03 7.7538092e+01 -1.1407745e+02
2.0698242e+03 7.2828488e+01 -1.1935251e+02
2.1430664e+03 7.5289798e+01 -1.1607555e+02
2.2192383e+03 7.6215933e+01 -1.3543309e+02
2.2968750e+03 7.7901882e+01 -1.7448157e+02
2.3789063e+03 6.9112712e+01 1.5623466e+02
2.4624023e+03 7.4730345e+01 1.6621043e+02
2.5488281e+03 7.3957429e+01 1.4754030e+02
2.6396484e+03 6.7151620e+01 1.3384379e+02
2.7319336e+03 7.2139538e+01 1.3897372e+02
2.8286133e+03 6.8521950e+01 1.2160166e+02
2.9282227e+03 6.7428450e+01 1.0798447e+02
3.0307617e+03 6.6463953e+01 1.2639441e+02
3.1376953e+03 6.6861764e+01 1.0430124e+02
3.2490234e+03 6.6028041e+01 1.1713872e+02
3.3632813e+03 6.3417028e+01 9.6260672e+01
3.4819336e+03 6.3809732e+01 1.1861618e+02
3.6049805e+03 6.4629453e+01 1.2026025e+02
3.7324219e+03 6.5810146e+01 1.1192580e+02
3.8642578e+03 6.8557657e+01 1.0079732e+02
4.0004883e+03 6.6417890e+01 8.2885909e+01
4.1411133e+03 6.4645089e+01 7.5028960e+01
4.2875977e+03 6.3025846e+01 6.9960444e+01
4.4384766e+03 6.4271481e+01 8.7783432e+01
4.5952148e+03 6.3696132e+01 7.3053180e+01
4.7563477e+03 6.3824781e+01 6.4864716e+01
4.9248047e+03 6.3452667e+01 6.2260456e+01
5.0976563e+03 6.2859466e+01 3.7080368e+01
5.2778320e+03 6.0181872e+01 3.4506377e+01
5.4638672e+03 5.7042818e+01 9.8550812e+00
5.6572266e+03 5.1667130e+01 -3.0567105e+01
5.8564453e+03 4.3094730e+01 1.3972149e+02
6.0629883e+03 5.6145356e+01 1.6524600e+02
6.2768555e+03 5.6776195e+01 1.2379042e+02
6.4980469e+03 5.7023804e+01 1.2950254e+02
6.7265625e+03 5.7394741e+01 1.2785857e+02
6.9638672e+03 5.9260082e+01 1.2759126e+02
7.2099609e+03 5.8456300e+01 1.2377627e+02
7.4648438e+03 5.8847808e+01 1.2528334e+02
7.7270508e+03 5.9924816e+01 1.3059755e+02
7.9995117e+03 6.0335936e+01 1.2403124e+02
8.2822266e+03 5.9622163e+01 1.2224397e+02
8.5737305e+03 5.9944693e+01 1.2446138e+02
8.8769531e+03 6.1192746e+01 1.2464502e+02
9.1889648e+03 6.1042986e+01 1.1949252e+02
9.5141602e+03 6.1178490e+01 1.1516642e+02
9.8496094e+03 6.0956586e+01 1.0471671e+02
1.0196777e+04 5.8089850e+01 1.0036003e+02
1.0555664e+04 5.6591754e+01 1.1387093e+02
1.0927734e+04 5.6142210e+01 1.3416117e+02
1.1312988e+04 5.8956964e+01 1.4261777e+02
1.1712891e+04 6.0770994e+01 1.3287255e+02
1.2125977e+04 6.0756064e+01 1.1292034e+02
1.2553711e+04 5.7893784e+01 1.0136722e+02
1.2996094e+04 5.6170206e+01 9.5327288e+01
1.3454590e+04 5.3863313e+01 8.8292665e+01
1.3929199e+04 5.0393686e+01 6.8985003e+01
1.4419922e+04 4.5607091e+01 2.6542066e+01
1.4928223e+04 4.4972353e+01 -5.4974156e+01
1.5455566e+04 5.1020511e+01 -9.6813505e+01
1.6000488e+04 5.3594996e+01 -1.3491953e+02
1.6564453e+04 5.2993289e+01 -1.5644597e+02
1.7148926e+04 5.1104297e+01 -1.5966002e+02
1.7752441e+04 5.1291914e+01 -1.7165003e+02
1.8379395e+04 4.7770912e+01 1.6563378e+02
1.9026855e+04 3.8604147e+01 1.2155650e+02
1.9697754e+04 4.0786050e+01 -6.1541219e+00
1.9999512e+04 4.5090907e+01 -4.3040416e+01
];
