Param_Coord_x1 = 1
Param_Coord_x2 = 130
Param_Coord_x3 = 0
Param_Coord_Type = Spherical
Param_Coord_AngularFormat = degree
Param_Coord_Front = '0,0'
Param_Coord_Top = '90,0'
Data_Domain=Frequency
Data_Phase_AngularFormat=degree
Data_Format = LeveldB_Phase
Data_LevelType=SoundPressure

Curve=[
2.0507813e+01 6.6418070e+01 -4.0732086e+01
2.1972656e+01 6.7879175e+01 -4.8528321e+01
2.3437500e+01 6.8492872e+01 -5.3082972e+01
2.4902344e+01 6.9880320e+01 -6.2718840e+01
2.6367188e+01 7.0581732e+01 -7.2469442e+01
2.7832031e+01 7.1059518e+01 -8.0280827e+01
2.9296875e+01 7.1951610e+01 -8.7151510e+01
3.0761719e+01 7.2697796e+01 -9.4795397e+01
3.2226563e+01 7.3448967e+01 -1.0211992e+02
3.3691406e+01 7.4147896e+01 -1.0929419e+02
3.5156250e+01 7.4827990e+01 -1.1593779e+02
3.6621094e+01 7.5532664e+01 -1.2236342e+02
3.8085938e+01 7.6120468e+01 -1.2881191e+02
3.9550781e+01 7.6632642e+01 -1.3493155e+02
4.1015625e+01 7.7130097e+01 -1.4079915e+02
4.2480469e+01 7.7662238e+01 -1.4678507e+02
4.3945313e+01 7.8133901e+01 -1.5201149e+02
4.5410156e+01 7.8605603e+01 -1.5714016e+02
4.6875000e+01 7.9056167e+01 -1.6251102e+02
4.8339844e+01 7.9468755e+01 -1.6770823e+02
5.1269531e+01 8.0296116e+01 -1.7780048e+02
5.2734375e+01 8.0694735e+01 1.7743221e+02
5.4199219e+01 8.1065229e+01 1.7271395e+02
5.5664063e+01 8.1411938e+01 1.6790240e+02
5.8593750e+01 8.2039315e+01 1.5845768e+02
6.0058594e+01 8.2303214e+01 1.5347300e+02
6.2988281e+01 8.2868354e+01 1.4371780e+02
6.4453125e+01 8.3114154e+01 1.3924181e+02
6.7382813e+01 8.3537134e+01 1.3040697e+02
6.8847656e+01 8.3652717e+01 1.2596258e+02
7.1777344e+01 8.3848484e+01 1.1569641e+02
7.4707031e+01 8.4032838e+01 1.0639171e+02
7.7636719e+01 8.4077562e+01 9.8533768e+01
7.9101563e+01 8.3972552e+01 9.4498337e+01
8.2031250e+01 8.3816985e+01 8.5864771e+01
8.4960938e+01 8.3724513e+01 7.8402154e+01
8.7890625e+01 8.3515258e+01 7.2164280e+01
9.0820313e+01 8.3275803e+01 6.5607512e+01
9.5214844e+01 8.3100145e+01 5.7777347e+01
9.8144531e+01 8.2847178e+01 5.2925277e+01
1.0107422e+02 8.2795081e+01 4.7847029e+01
1.0546875e+02 8.2514314e+01 4.1117279e+01
1.0839844e+02 8.2348499e+01 3.6714921e+01
1.1279297e+02 8.2119597e+01 3.1225927e+01
1.1718750e+02 8.1877117e+01 2.5489609e+01
1.2011719e+02 8.1689558e+01 2.2268753e+01
1.2451172e+02 8.1418996e+01 1.6975423e+01
1.2890625e+02 8.1137510e+01 1.3411903e+01
1.3330078e+02 8.0938858e+01 9.9470695e+00
1.3916016e+02 8.0892556e+01 5.9437571e+00
1.4355469e+02 8.0760560e+01 1.6624751e+00
1.4794922e+02 8.0543992e+01 -1.8300084e+00
1.5380859e+02 8.0159687e+01 -5.0807760e+00
1.5966797e+02 8.0237639e+01 -7.1611180e+00
1.6552734e+02 8.0119774e+01 -1.2337541e+01
1.7138672e+02 7.9948719e+01 -1.4100509e+01
1.7724609e+02 8.0080125e+01 -1.9272221e+01
1.8310547e+02 7.9668015e+01 -2.3560810e+01
1.8896484e+02 7.9207883e+01 -2.4866743e+01
1.9628906e+02 7.9587707e+01 -2.5924488e+01
2.0361328e+02 7.9699533e+01 -3.2632495e+01
2.1093750e+02 7.9257347e+01 -3.7484871e+01
2.1826172e+02 7.8903474e+01 -4.0378811e+01
2.2558594e+02 7.8713827e+01 -4.4255713e+01
2.3291016e+02 7.8105341e+01 -4.2125207e+01
2.4169922e+02 7.8980060e+01 -4.8236359e+01
2.5048828e+02 7.8171525e+01 -5.1543308e+01
2.5927734e+02 7.8160477e+01 -5.2351680e+01
2.6806641e+02 7.8477960e+01 -5.3786376e+01
2.7685547e+02 7.8470858e+01 -6.2655336e+01
2.8710938e+02 7.6871196e+01 -6.3075756e+01
2.9736328e+02 7.7210738e+01 -5.8200269e+01
3.0761719e+02 7.7526352e+01 -6.2906727e+01
3.1933594e+02 7.7558495e+01 -6.1535859e+01
3.2958984e+02 7.7767057e+01 -6.7462584e+01
3.4130859e+02 7.8255092e+01 -6.6946197e+01
3.5302734e+02 7.9229610e+01 -7.3984480e+01
3.6621094e+02 7.9669595e+01 -8.7326587e+01
3.7939453e+02 7.8272485e+01 -1.0092744e+02
3.9257813e+02 7.7722930e+01 -9.6630150e+01
4.0576172e+02 7.8204484e+01 -1.0107311e+02
4.2041016e+02 7.8815737e+01 -1.1028833e+02
4.3505859e+02 7.7739194e+01 -1.2258188e+02
4.5117188e+02 7.7419004e+01 -1.2187868e+02
4.6582031e+02 7.7219047e+01 -1.3348955e+02
4.8339844e+02 7.6347307e+01 -1.3047616e+02
4.9951172e+02 7.6115202e+01 -1.3904674e+02
5.1708984e+02 7.6495673e+01 -1.3964996e+02
5.3613281e+02 7.6312542e+01 -1.4959896e+02
5.5517578e+02 7.5843358e+01 -1.5402838e+02
5.7421875e+02 7.5335879e+01 -1.5994175e+02
5.9472656e+02 7.5479191e+01 -1.6076491e+02
6.1523438e+02 7.5639915e+01 -1.7016416e+02
6.3720703e+02 7.5774573e+01 -1.7127578e+02
6.5917969e+02 7.5849027e+01 1.7084969e+02
6.8261719e+02 7.4822057e+01 1.6521541e+02
7.0751953e+02 7.2676116e+01 1.6124141e+02
7.3242188e+02 7.4945418e+01 1.6560378e+02
7.5732422e+02 7.3915577e+01 1.5054638e+02
7.8515625e+02 7.5020607e+01 1.4721324e+02
8.1152344e+02 7.4289107e+01 1.3119338e+02
8.4082031e+02 7.3416222e+01 1.2087349e+02
8.7011719e+02 7.2564989e+01 1.1840364e+02
9.0087891e+02 7.2833496e+01 1.1252987e+02
9.3310547e+02 7.2167497e+01 1.1121599e+02
9.6533203e+02 7.2261693e+01 1.1664781e+02
1.0004883e+03 7.3737059e+01 9.9574138e+01
1.0356445e+03 7.2238672e+01 8.7405320e+01
1.0722656e+03 7.2309609e+01 7.6864222e+01
1.1088867e+03 7.1172413e+01 7.3567688e+01
1.1484375e+03 7.2874865e+01 6.6912391e+01
1.1894531e+03 7.2534742e+01 4.8054000e+01
1.2304688e+03 7.3749600e+01 3.8065043e+01
1.2744141e+03 7.2892323e+01 6.8703189e+00
1.3198242e+03 6.9256005e+01 9.9065445e+00
1.3666992e+03 7.0639631e+01 -6.2994756e+00
1.4135742e+03 6.6318150e+01 -2.2684665e+01
1.4633789e+03 6.8314434e+01 1.1760741e+01
1.5161133e+03 7.1755068e+01 -8.5365322e+00
1.5688477e+03 7.2745442e+01 -3.4591590e+01
1.6245117e+03 7.2347059e+01 -5.0350395e+01
1.6816406e+03 7.1675291e+01 -8.2471179e+01
1.7416992e+03 7.2547760e+01 -7.8994015e+01
1.8032227e+03 7.3309360e+01 -1.0587474e+02
1.8662109e+03 7.2658536e+01 -1.3328564e+02
1.9321289e+03 7.1786595e+01 -1.3599659e+02
1.9995117e+03 7.3986871e+01 -1.5543982e+02
2.0698242e+03 7.4381405e+01 1.6073146e+02
2.1430664e+03 7.2152783e+01 1.3816269e+02
2.2192383e+03 7.2029233e+01 1.3468708e+02
2.2968750e+03 6.8961860e+01 1.1632737e+02
2.3789063e+03 6.9704573e+01 1.1286975e+02
2.4624023e+03 6.7161971e+01 5.5909748e+01
2.5488281e+03 6.6020502e+01 6.6779341e+01
2.6396484e+03 6.2115626e+01 2.8200448e+01
2.7319336e+03 6.4091587e+01 4.3956385e+01
2.8286133e+03 5.6197172e+01 -8.2710012e+00
2.9282227e+03 5.5729293e+01 3.7530861e+01
3.0307617e+03 5.4737660e+01 3.2387399e+01
3.1376953e+03 5.2863907e+01 6.4743280e+01
3.2490234e+03 5.5383399e+01 2.7711137e+01
3.3632813e+03 4.5920132e+01 8.6130083e+01
3.4819336e+03 5.3823685e+01 8.1275566e+01
3.6049805e+03 6.0925768e+01 5.3563022e+01
3.7324219e+03 5.6798468e+01 4.1873540e+01
3.8642578e+03 5.6586957e+01 2.1574779e+01
4.0004883e+03 5.8405970e+01 2.9400286e+01
4.1411133e+03 5.8722271e+01 2.2594961e+01
4.2875977e+03 6.1186472e+01 2.3135429e+01
4.4384766e+03 6.2285847e+01 -3.5133336e+00
4.5952148e+03 6.2041559e+01 -1.8408966e+01
4.7563477e+03 6.1880292e+01 -3.6133732e+01
4.9248047e+03 5.9801384e+01 -5.5694069e+01
5.0976563e+03 5.7530665e+01 -6.7247316e+01
5.2778320e+03 5.3458689e+01 -7.1452564e+01
5.4638672e+03 5.0816869e+01 -7.7957345e+01
5.6572266e+03 4.9611581e+01 -4.7199853e+01
5.8564453e+03 5.0865734e+01 -7.0698068e+01
6.0629883e+03 4.9789816e+01 -3.7095744e+01
6.2768555e+03 4.6423559e+01 -7.8862266e+01
6.4980469e+03 4.6637134e+01 -3.0378105e+01
6.7265625e+03 4.6371458e+01 -3.0178360e+01
6.9638672e+03 4.9450242e+01 -3.0646906e+01
7.2099609e+03 4.7862096e+01 -3.9882687e+01
7.4648438e+03 4.9323638e+01 -5.5054232e+01
7.7270508e+03 5.0798768e+01 -5.7256413e+01
7.9995117e+03 5.1093189e+01 -6.0873885e+01
8.2822266e+03 5.0745599e+01 -4.6211295e+01
8.5737305e+03 5.0895225e+01 -4.9460797e+01
8.8769531e+03 5.2141928e+01 -6.8842025e+01
9.1889648e+03 5.2391417e+01 -8.5309479e+01
9.5141602e+03 5.2517362e+01 -9.2604880e+01
9.8496094e+03 5.0635809e+01 -1.0375666e+02
1.0196777e+04 4.8153795e+01 -1.1111138e+02
1.0555664e+04 4.5430134e+01 -1.1616410e+02
1.0927734e+04 4.6227798e+01 -1.0994297e+02
1.1312988e+04 4.7593642e+01 -1.1955465e+02
1.1712891e+04 4.6446795e+01 -1.5747537e+02
1.2125977e+04 4.4451793e+01 1.7200366e+02
1.2553711e+04 4.1961632e+01 1.5353310e+02
1.2996094e+04 4.0011023e+01 1.1336239e+02
1.3454590e+04 3.8584097e+01 6.3672111e+01
1.3929199e+04 4.0241059e+01 3.5347592e+01
1.4419922e+04 4.1314991e+01 3.7913052e+00
1.4928223e+04 4.2683382e+01 -2.1782909e+01
1.5455566e+04 4.2824960e+01 -5.0410107e+01
1.6000488e+04 4.0197654e+01 -7.2148496e+01
1.6564453e+04 3.8903456e+01 -6.7470377e+01
1.7148926e+04 4.0807152e+01 -8.2115736e+01
1.7752441e+04 3.9416960e+01 -8.0306763e+01
1.8379395e+04 3.7224604e+01 -8.8187914e+01
1.9026855e+04 3.6611597e+01 -1.1544615e+02
1.9697754e+04 3.5565752e+01 -1.3169923e+02
1.9999512e+04 4.7667007e+01 -1.7261616e+02
];
