Param_Coord_x1 = 1
Param_Coord_x2 = 150
Param_Coord_x3 = 90
Param_Coord_Type = Spherical
Param_Coord_AngularFormat = degree
Param_Coord_Front = '0,0'
Param_Coord_Top = '90,0'
Data_Domain=Frequency
Data_Phase_AngularFormat=degree
Data_Format = LeveldB_Phase
Data_LevelType=SoundPressure

Curve=[
2.0507813e+01 6.8631944e+01 -3.8686861e+01 
2.1972656e+01 7.0080957e+01 -4.6065679e+01 
2.3437500e+01 7.0459026e+01 -4.9179826e+01 
2.4902344e+01 7.2040922e+01 -5.9011669e+01 
2.6367188e+01 7.2732339e+01 -6.9549454e+01 
2.7832031e+01 7.2956512e+01 -7.6673339e+01 
2.9296875e+01 7.3841578e+01 -8.3353966e+01 
3.0761719e+01 7.4548733e+01 -9.0642256e+01 
3.2226563e+01 7.5214371e+01 -9.7812979e+01 
3.3691406e+01 7.5854973e+01 -1.0470504e+02 
3.5156250e+01 7.6487368e+01 -1.1107900e+02 
3.6621094e+01 7.7158959e+01 -1.1721645e+02 
3.8085938e+01 7.7700963e+01 -1.2358708e+02 
3.9550781e+01 7.8168764e+01 -1.2952079e+02 
4.1015625e+01 7.8620785e+01 -1.3526207e+02 
4.2480469e+01 7.9111632e+01 -1.4107005e+02 
4.3945313e+01 7.9543452e+01 -1.4607396e+02 
4.5410156e+01 7.9980288e+01 -1.5103274e+02 
4.6875000e+01 8.0401915e+01 -1.5620983e+02 
4.8339844e+01 8.0792028e+01 -1.6126395e+02 
5.1269531e+01 8.1560558e+01 -1.7109716e+02 
5.2734375e+01 8.1931703e+01 -1.7572120e+02 
5.4199219e+01 8.2275110e+01 1.7970776e+02 
5.5664063e+01 8.2600738e+01 1.7505517e+02 
5.8593750e+01 8.3175623e+01 1.6591141e+02 
6.0058594e+01 8.3418673e+01 1.6109029e+02 
6.2988281e+01 8.3947452e+01 1.5164709e+02 
6.4453125e+01 8.4179158e+01 1.4730390e+02 
6.7382813e+01 8.4563951e+01 1.3869482e+02 
6.8847656e+01 8.4661475e+01 1.3440833e+02 
7.1777344e+01 8.4832082e+01 1.2439241e+02 
7.4707031e+01 8.4987212e+01 1.1532832e+02 
7.7636719e+01 8.5003331e+01 1.0770622e+02 
7.9101563e+01 8.4883239e+01 1.0377367e+02 
8.2031250e+01 8.4699487e+01 9.5415512e+01 
8.4960938e+01 8.4587716e+01 8.8212903e+01 
8.7890625e+01 8.4365159e+01 8.2210671e+01 
9.0820313e+01 8.4114108e+01 7.5821659e+01 
9.5214844e+01 8.3911303e+01 6.8212100e+01 
9.8144531e+01 8.3638624e+01 6.3504268e+01 
1.0107422e+02 8.3561814e+01 5.8596210e+01 
1.0546875e+02 8.3248009e+01 5.2071177e+01 
1.0839844e+02 8.3037264e+01 4.7886172e+01 
1.1279297e+02 8.2776649e+01 4.2999677e+01 
1.1718750e+02 8.2538691e+01 3.7806634e+01 
1.2011719e+02 8.2385555e+01 3.4821401e+01 
1.2451172e+02 8.2117178e+01 2.9497148e+01 
1.2890625e+02 8.1797467e+01 2.6149172e+01 
1.3330078e+02 8.1576810e+01 2.3033749e+01 
1.3916016e+02 8.1520862e+01 1.9370364e+01 
1.4355469e+02 8.1337436e+01 1.5350666e+01 
1.4794922e+02 8.1088447e+01 1.2516149e+01 
1.5380859e+02 8.0756810e+01 1.0009196e+01 
1.5966797e+02 8.0851945e+01 7.8474818e+00 
1.6552734e+02 8.0693080e+01 3.0006096e+00 
1.7138672e+02 8.0495954e+01 1.8040514e+00 
1.7724609e+02 8.0657881e+01 -2.9492226e+00 
1.8310547e+02 8.0271328e+01 -7.4080311e+00 
1.8896484e+02 7.9703351e+01 -8.8036905e+00 
1.9628906e+02 8.0028080e+01 -9.2119684e+00 
2.0361328e+02 8.0044443e+01 -1.5380723e+01 
2.1093750e+02 7.9552478e+01 -1.9483309e+01 
2.1826172e+02 7.9201374e+01 -2.1776080e+01 
2.2558594e+02 7.8967284e+01 -2.5367585e+01 
2.3291016e+02 7.8154589e+01 -2.2512887e+01 
2.4169922e+02 7.9166605e+01 -2.6832569e+01 
2.5048828e+02 7.8311999e+01 -3.0059492e+01 
2.5927734e+02 7.8159423e+01 -2.9869351e+01 
2.6806641e+02 7.8580787e+01 -2.9537129e+01 
2.7685547e+02 7.8748038e+01 -3.7633934e+01 
2.8710938e+02 7.7158502e+01 -4.1106908e+01 
2.9736328e+02 7.7140038e+01 -3.3282471e+01 
3.0761719e+02 7.7254150e+01 -3.8449619e+01 
3.1933594e+02 7.7059908e+01 -3.2463520e+01 
3.2958984e+02 7.7664808e+01 -3.7377476e+01 
3.4130859e+02 7.8262199e+01 -3.5278795e+01 
3.5302734e+02 7.9417284e+01 -4.2739253e+01 
3.6621094e+02 7.9827968e+01 -5.6237739e+01 
3.7939453e+02 7.8514353e+01 -6.8482151e+01 
3.9257813e+02 7.8250793e+01 -6.9746219e+01 
4.0576172e+02 7.7659765e+01 -7.2243952e+01 
4.2041016e+02 7.8411421e+01 -7.9480529e+01 
4.3505859e+02 7.6958596e+01 -9.2436689e+01 
4.5117188e+02 7.6389559e+01 -8.4575545e+01 
4.6582031e+02 7.7026372e+01 -9.7030795e+01 
4.8339844e+02 7.4910616e+01 -9.7994535e+01 
4.9951172e+02 7.5195013e+01 -1.0476710e+02 
5.1708984e+02 7.4780414e+01 -1.0524446e+02 
5.3613281e+02 7.4592505e+01 -1.1083668e+02 
5.5517578e+02 7.3848383e+01 -1.2268411e+02 
5.7421875e+02 7.1055674e+01 -1.3054828e+02 
5.9472656e+02 7.1668802e+01 -9.7871046e+01 
6.1523438e+02 7.4182180e+01 -1.2450830e+02 
6.3720703e+02 7.1951741e+01 -1.2629397e+02 
6.5917969e+02 7.3219768e+01 -1.3959017e+02 
6.8261719e+02 7.1024686e+01 -1.5300195e+02 
7.0751953e+02 7.0042243e+01 -1.7363435e+02 
7.3242188e+02 6.7708865e+01 -1.5486152e+02 
7.5732422e+02 6.2181709e+01 1.4866768e+02 
7.8515625e+02 6.7793899e+01 -1.2983508e+02 
8.1152344e+02 5.8141401e+01 1.7070260e+02 
8.4082031e+02 5.9551767e+01 -1.6750091e+02 
8.7011719e+02 6.3084043e+01 -9.7266786e+01 
9.0087891e+02 5.8120666e+01 -1.3626466e+02 
9.3310547e+02 6.3795182e+01 -1.3233612e+02 
9.6533203e+02 6.5460595e+01 -1.0746984e+02 
1.0004883e+03 6.5356674e+01 -1.0270562e+02 
1.0356445e+03 6.3125711e+01 -1.2115447e+02 
1.0722656e+03 6.6766759e+01 -1.2957710e+02 
1.1088867e+03 6.5251142e+01 -1.2692552e+02 
1.1484375e+03 6.4434810e+01 -1.2334573e+02 
1.1894531e+03 6.6454272e+01 -1.2266452e+02 
1.2304688e+03 6.4671990e+01 -1.3628895e+02 
1.2744141e+03 6.7548095e+01 -1.3827908e+02 
1.3198242e+03 6.8624979e+01 -1.3699165e+02 
1.3666992e+03 6.9110655e+01 -1.5669637e+02 
1.4135742e+03 6.9757584e+01 -1.5459048e+02 
1.4633789e+03 7.1462707e+01 -1.7334296e+02 
1.5161133e+03 7.1521252e+01 -1.7618051e+02 
1.5688477e+03 7.1508580e+01 1.7015612e+02 
1.6245117e+03 7.2275050e+01 1.6203283e+02 
1.6816406e+03 7.3406925e+01 1.5234861e+02 
1.7416992e+03 7.3454245e+01 1.3376762e+02 
1.8032227e+03 7.3846701e+01 1.0887327e+02 
1.8662109e+03 6.8642288e+01 7.5734439e+01 
1.9321289e+03 7.0437372e+01 1.2512137e+02 
1.9995117e+03 7.1470008e+01 7.5954378e+01 
2.0698242e+03 6.8179170e+01 9.9818444e+01 
2.1430664e+03 7.3384233e+01 6.3301054e+01 
2.2192383e+03 6.9181484e+01 3.2784438e+01 
2.2968750e+03 6.7732110e+01 5.5734619e+01 
2.3789063e+03 6.9538173e+01 3.4641595e+01 
2.4624023e+03 6.8131343e+01 3.1452563e+01 
2.5488281e+03 7.0387875e+01 1.6196154e+00 
2.6396484e+03 6.5686307e+01 1.1386585e+01 
2.7319336e+03 6.8149111e+01 -1.1662475e+01 
2.8286133e+03 6.4348379e+01 -1.0332770e+01 
2.9282227e+03 6.6850305e+01 -1.3513696e+01 
3.0307617e+03 6.4720530e+01 -1.5601943e+01 
3.1376953e+03 6.7322957e+01 -1.8132893e+01 
3.2490234e+03 6.8558951e+01 -3.2708980e+01 
3.3632813e+03 6.8953998e+01 -5.1523885e+01 
3.4819336e+03 6.8191809e+01 -5.9316840e+01 
3.6049805e+03 6.9851809e+01 -8.2362839e+01 
3.7324219e+03 6.8374191e+01 -9.3578236e+01 
3.8642578e+03 6.7826112e+01 -1.1206649e+02 
4.0004883e+03 6.8123670e+01 -1.2077297e+02 
4.1411133e+03 6.8428732e+01 -1.3234510e+02 
4.2875977e+03 6.7149715e+01 -1.4447452e+02 
4.4384766e+03 6.9260048e+01 -1.4884210e+02 
4.5952148e+03 6.9165352e+01 -1.7249715e+02 
4.7563477e+03 6.9020571e+01 1.7584657e+02 
4.9248047e+03 6.8816839e+01 1.5902455e+02 
5.0976563e+03 6.8321519e+01 1.4034112e+02 
5.2778320e+03 6.8196962e+01 1.2835503e+02 
5.4638672e+03 6.6945947e+01 1.0676169e+02 
5.6572266e+03 6.7409103e+01 9.4884521e+01 
5.8564453e+03 6.6091692e+01 7.6449490e+01 
6.0629883e+03 6.6652108e+01 6.3641315e+01 
6.2768555e+03 6.5823950e+01 4.4454692e+01 
6.4980469e+03 6.6376995e+01 2.8075028e+01 
6.7265625e+03 6.5184189e+01 9.9555998e+00 
6.9638672e+03 6.4947240e+01 -8.3204290e+00 
7.2099609e+03 6.4144478e+01 -2.4941654e+01 
7.4648438e+03 6.3172408e+01 -4.2620425e+01 
7.7270508e+03 6.2839380e+01 -5.8607276e+01 
7.9995117e+03 6.2018151e+01 -7.5582903e+01 
8.2822266e+03 6.0999875e+01 -9.1106435e+01 
8.5737305e+03 6.0513728e+01 -1.0780182e+02 
8.8769531e+03 5.9707255e+01 -1.2245575e+02 
9.1889648e+03 5.9040032e+01 -1.3950636e+02 
9.5141602e+03 5.7758078e+01 -1.5533695e+02 
9.8496094e+03 5.6729857e+01 -1.6592970e+02 
1.0196777e+04 5.6175704e+01 -1.7933453e+02 
1.0555664e+04 5.6061163e+01 1.6585384e+02 
1.0927734e+04 5.5693775e+01 1.4628186e+02 
1.1312988e+04 5.5010491e+01 1.2801187e+02 
1.1712891e+04 5.4090167e+01 1.0564308e+02 
1.2125977e+04 5.3034581e+01 8.9738439e+01 
1.2553711e+04 5.2253690e+01 6.0594865e+01 
1.2996094e+04 4.8555475e+01 2.6398886e+01 
1.3454590e+04 4.4959462e+01 5.5698308e+00 
1.3929199e+04 4.3017350e+01 -3.9139509e+01 
1.4419922e+04 4.1904862e+01 -1.0064942e+02 
1.4928223e+04 4.2912287e+01 -1.6371035e+02 
1.5455566e+04 4.4591392e+01 1.6056182e+02 
1.6000488e+04 4.6598338e+01 1.3750167e+02 
1.6564453e+04 4.8950045e+01 1.0591068e+02 
1.7148926e+04 4.8448814e+01 7.8115109e+01 
1.7752441e+04 4.9352338e+01 5.9530459e+01 
1.8379395e+04 4.8926558e+01 2.2242538e+01 
1.9026855e+04 4.6647236e+01 -1.5196799e+00 
1.9697754e+04 4.4740054e+01 -4.1218090e+01 
1.9999512e+04 4.7048015e+01 -5.9857483e+01 
];
