Param_Coord_x1 = 1
Param_Coord_x2 = 340
Param_Coord_x3 = 90
Param_Coord_Type = Spherical
Param_Coord_AngularFormat = degree
Param_Coord_Front = '0,0'
Param_Coord_Top = '90,0'
Data_Domain=Frequency
Data_Phase_AngularFormat=degree
Data_Format = LeveldB_Phase
Data_LevelType=SoundPressure

Curve=[
2.0507813e+01 5.7404828e+01 1.7257711e+02
2.1972656e+01 5.8400710e+01 1.6400220e+02
2.3437500e+01 5.9431997e+01 1.7547768e+02
2.4902344e+01 6.0557494e+01 1.7219833e+02
2.6367188e+01 6.0901772e+01 1.6825429e+02
2.7832031e+01 6.2084505e+01 1.7891910e+02
2.9296875e+01 6.3086172e+01 1.7900394e+02
3.0761719e+01 6.4307558e+01 -1.7977922e+02
3.2226563e+01 6.5531857e+01 -1.7752779e+02
3.3691406e+01 6.6792196e+01 -1.7778534e+02
3.5156250e+01 6.8012105e+01 -1.7798376e+02
3.6621094e+01 6.9256924e+01 -1.7895162e+02
3.8085938e+01 7.0357218e+01 1.7897582e+02
3.9550781e+01 7.1323674e+01 1.7701663e+02
4.1015625e+01 7.2197696e+01 1.7454806e+02
4.2480469e+01 7.3105756e+01 1.7223217e+02
4.3945313e+01 7.3949451e+01 1.6967665e+02
4.5410156e+01 7.4727740e+01 1.6707390e+02
4.6875000e+01 7.5499603e+01 1.6403738e+02
4.8339844e+01 7.6162319e+01 1.6088295e+02
5.1269531e+01 7.7485178e+01 1.5457094e+02
5.2734375e+01 7.8117251e+01 1.5148723e+02
5.4199219e+01 7.8687606e+01 1.4836309e+02
5.5664063e+01 7.9226529e+01 1.4504022e+02
5.8593750e+01 8.0204364e+01 1.3832574e+02
6.0058594e+01 8.0642209e+01 1.3467487e+02
6.2988281e+01 8.1544642e+01 1.2709719e+02
6.4453125e+01 8.1941757e+01 1.2352408e+02
6.7382813e+01 8.2599614e+01 1.1662574e+02
6.8847656e+01 8.2820758e+01 1.1316847e+02
7.1777344e+01 8.3207525e+01 1.0497571e+02
7.4707031e+01 8.3609674e+01 9.7522503e+01
7.7636719e+01 8.3847668e+01 9.1477711e+01
7.9101563e+01 8.3832418e+01 8.8323617e+01
8.2031250e+01 8.3831833e+01 8.1475305e+01
8.4960938e+01 8.3903485e+01 7.5786686e+01
8.7890625e+01 8.3857212e+01 7.1217726e+01
9.0820313e+01 8.3779890e+01 6.6235593e+01
9.5214844e+01 8.3784219e+01 6.0549468e+01
9.8144531e+01 8.3654952e+01 5.7070443e+01
1.0107422e+02 8.3670131e+01 5.3269866e+01
1.0546875e+02 8.3494145e+01 4.8922353e+01
1.0839844e+02 8.3390123e+01 4.6007796e+01
1.1279297e+02 8.3314862e+01 4.3034388e+01
1.1718750e+02 8.3228540e+01 3.8884078e+01
1.2011719e+02 8.3055567e+01 3.6882813e+01
1.2451172e+02 8.2920271e+01 3.4563498e+01
1.2890625e+02 8.2874955e+01 3.2061604e+01
1.3330078e+02 8.2792559e+01 3.0261054e+01
1.3916016e+02 8.2837303e+01 2.6949222e+01
1.4355469e+02 8.2646549e+01 2.4464325e+01
1.4794922e+02 8.2474251e+01 2.3139824e+01
1.5380859e+02 8.2349853e+01 2.2488229e+01
1.5966797e+02 8.2568841e+01 2.1108374e+01
1.6552734e+02 8.2530331e+01 1.8363437e+01
1.7138672e+02 8.2573581e+01 1.6558294e+01
1.7724609e+02 8.2385743e+01 1.3507968e+01
1.8310547e+02 8.2129511e+01 1.2964891e+01
1.8896484e+02 8.2071863e+01 1.3733383e+01
1.9628906e+02 8.2544640e+01 1.2324851e+01
2.0361328e+02 8.2417682e+01 8.1965988e+00
2.1093750e+02 8.2131017e+01 6.9650177e+00
2.1826172e+02 8.1984412e+01 7.2720183e+00
2.2558594e+02 8.1954645e+01 6.8558475e+00
2.3291016e+02 8.2382193e+01 7.9911143e+00
2.4169922e+02 8.2233427e+01 2.6823099e+00
2.5048828e+02 8.2269025e+01 4.5412379e+00
2.5927734e+02 8.2524683e+01 1.7267112e+00
2.6806641e+02 8.2534023e+01 -2.1365335e+00
2.7685547e+02 8.1543807e+01 -3.3488374e+00
2.8710938e+02 8.1478196e+01 2.0195815e+00
2.9736328e+02 8.1797739e+01 1.8973659e+00
3.0761719e+02 8.1495232e+01 2.1412427e+00
3.1933594e+02 8.2174913e+01 2.3801509e+00
3.2958984e+02 8.2094212e+01 1.8835066e+00
3.4130859e+02 8.2468497e+01 -5.7458657e-01
3.5302734e+02 8.2500134e+01 -2.9994939e+00
3.6621094e+02 8.2319136e+01 -4.7550328e+00
3.7939453e+02 8.2948572e+01 -2.1921345e+00
3.9257813e+02 8.3703656e+01 -9.8984580e+00
4.0576172e+02 8.3580788e+01 -1.4935123e+01
4.2041016e+02 8.3089508e+01 -1.7530944e+01
4.3505859e+02 8.3317753e+01 -1.8016957e+01
4.5117188e+02 8.3208673e+01 -2.4489848e+01
4.6582031e+02 8.2779963e+01 -2.1844755e+01
4.8339844e+02 8.3609535e+01 -2.8520525e+01
4.9951172e+02 8.2961929e+01 -2.9758137e+01
5.1708984e+02 8.2878296e+01 -3.1486479e+01
5.3613281e+02 8.2848755e+01 -3.3796279e+01
5.5517578e+02 8.2908195e+01 -3.3376581e+01
5.7421875e+02 8.3509621e+01 -3.3399128e+01
5.9472656e+02 8.3581751e+01 -4.3955864e+01
6.1523438e+02 8.3064838e+01 -4.5251689e+01
6.3720703e+02 8.2918884e+01 -4.7515778e+01
6.5917969e+02 8.2806676e+01 -4.6851783e+01
6.8261719e+02 8.2911766e+01 -5.0641007e+01
7.0751953e+02 8.3449543e+01 -5.2073428e+01
7.3242188e+02 8.3233922e+01 -5.6079238e+01
7.5732422e+02 8.4043257e+01 -6.2586210e+01
7.8515625e+02 8.2812485e+01 -6.8158461e+01
8.1152344e+02 8.3467471e+01 -7.5157816e+01
8.4082031e+02 8.2250737e+01 -7.8559052e+01
8.7011719e+02 8.2075798e+01 -8.2507447e+01
9.0087891e+02 8.1711949e+01 -7.7744007e+01
9.3310547e+02 8.1421655e+01 -7.2237457e+01
9.6533203e+02 8.1781451e+01 -7.2296066e+01
1.0004883e+03 8.2025223e+01 -7.3159821e+01
1.0356445e+03 8.2179077e+01 -7.4814845e+01
1.0722656e+03 8.2122370e+01 -7.7402559e+01
1.1088867e+03 8.2806309e+01 -8.2973108e+01
1.1484375e+03 8.2918658e+01 -8.8577086e+01
1.1894531e+03 8.3133997e+01 -9.7466433e+01
1.2304688e+03 8.2652566e+01 -1.0223250e+02
1.2744141e+03 8.2576795e+01 -1.0455120e+02
1.3198242e+03 8.2319210e+01 -1.1059137e+02
1.3666992e+03 8.2617218e+01 -1.1492543e+02
1.4135742e+03 8.2082418e+01 -1.1630397e+02
1.4633789e+03 8.2724027e+01 -1.2199145e+02
1.5161133e+03 8.2149614e+01 -1.3034207e+02
1.5688477e+03 8.2055187e+01 -1.2952783e+02
1.6245117e+03 8.2487469e+01 -1.3529736e+02
1.6816406e+03 8.1975452e+01 -1.4164842e+02
1.7416992e+03 8.2931025e+01 -1.4451575e+02
1.8032227e+03 8.2082085e+01 -1.4851374e+02
1.8662109e+03 8.1764438e+01 -1.6016291e+02
1.9321289e+03 8.1653269e+01 -1.5346310e+02
1.9995117e+03 8.2802561e+01 -1.5911278e+02
2.0698242e+03 8.3808154e+01 -1.7021756e+02
2.1430664e+03 8.2278286e+01 -1.7721589e+02
2.2192383e+03 8.2636595e+01 1.6944677e+02
2.2968750e+03 8.2884496e+01 1.7742206e+02
2.3789063e+03 8.3357580e+01 1.6999445e+02
2.4624023e+03 8.3278248e+01 1.5696099e+02
2.5488281e+03 8.3224970e+01 1.4851730e+02
2.6396484e+03 8.2894297e+01 1.4235043e+02
2.7319336e+03 8.3013429e+01 1.3638431e+02
2.8286133e+03 8.3332287e+01 1.2735711e+02
2.9282227e+03 8.2693154e+01 1.1511348e+02
3.0307617e+03 8.1373390e+01 1.1263430e+02
3.1376953e+03 8.1781013e+01 1.1304275e+02
3.2490234e+03 8.1824430e+01 1.0546556e+02
3.3632813e+03 8.1698802e+01 1.0396315e+02
3.4819336e+03 8.2655369e+01 9.9713753e+01
3.6049805e+03 8.3226031e+01 9.0251308e+01
3.7324219e+03 8.3349114e+01 7.8533811e+01
3.8642578e+03 8.2881307e+01 7.2266947e+01
4.0004883e+03 8.3241696e+01 5.9761389e+01
4.1411133e+03 8.1889396e+01 5.4972307e+01
4.2875977e+03 8.1900473e+01 4.5451913e+01
4.4384766e+03 8.0952160e+01 4.3514769e+01
4.5952148e+03 8.0257974e+01 3.3263926e+01
4.7563477e+03 7.9458751e+01 3.9135408e+01
4.9248047e+03 7.9064733e+01 3.5631135e+01
5.0976563e+03 7.9511343e+01 3.6767612e+01
5.2778320e+03 8.0005991e+01 3.6150662e+01
5.4638672e+03 7.9870121e+01 3.0668576e+01
5.6572266e+03 8.1007860e+01 2.5620696e+01
5.8564453e+03 8.0908768e+01 2.4049370e+01
6.0629883e+03 8.1402744e+01 1.6244397e+01
6.2768555e+03 8.1728488e+01 9.6923747e+00
6.4980469e+03 8.2314454e+01 1.5144745e+00
6.7265625e+03 8.2251135e+01 -4.6091328e+00
6.9638672e+03 8.2126057e+01 -1.4784937e+01
7.2099609e+03 8.2356637e+01 -2.1083482e+01
7.4648438e+03 8.2049579e+01 -2.5473363e+01
7.7270508e+03 8.2514509e+01 -3.2355961e+01
7.9995117e+03 8.3395993e+01 -3.8382023e+01
8.2822266e+03 8.3923490e+01 -4.7985802e+01
8.5737305e+03 8.3783752e+01 -6.1415904e+01
8.8769531e+03 8.3496967e+01 -7.1727310e+01
9.1889648e+03 8.3149753e+01 -7.9524764e+01
9.5141602e+03 8.2790087e+01 -8.5674740e+01
9.8496094e+03 8.2543722e+01 -9.2043587e+01
1.0196777e+04 8.2400507e+01 -9.8189613e+01
1.0555664e+04 8.2177546e+01 -1.0435343e+02
1.0927734e+04 8.2089997e+01 -1.0916276e+02
1.1312988e+04 8.2091386e+01 -1.1548903e+02
1.1712891e+04 8.1898482e+01 -1.2129869e+02
1.2125977e+04 8.1826286e+01 -1.2604472e+02
1.2553711e+04 8.1912316e+01 -1.3197989e+02
1.2996094e+04 8.2087690e+01 -1.3873240e+02
1.3454590e+04 8.2254064e+01 -1.4735147e+02
1.3929199e+04 8.2304195e+01 -1.5664379e+02
1.4419922e+04 8.2259505e+01 -1.6625333e+02
1.4928223e+04 8.2360771e+01 -1.7559851e+02
1.5455566e+04 8.2509142e+01 1.7410349e+02
1.6000488e+04 8.2720446e+01 1.6350285e+02
1.6564453e+04 8.2954606e+01 1.5169470e+02
1.7148926e+04 8.2799408e+01 1.4035234e+02
1.7752441e+04 8.2891849e+01 1.3082239e+02
1.8379395e+04 8.2927833e+01 1.2127056e+02
1.9026855e+04 8.2981741e+01 1.0972774e+02
1.9697754e+04 8.2892755e+01 9.9297778e+01
1.9999512e+04 8.2883675e+01 9.3207407e+01
];
